sample_index,mse,mae,max_absolute_error,relative_error
0,5.246561505148802e-05,0.004927007560586609,0.05650945548275921,0.00724331519757959
1,5.508504718174382e-05,0.004497918465875321,0.06862529805245376,0.007421930152038852
2,4.743223351003194e-05,0.004229430217795337,0.0655998830256952,0.006887106323415617
3,4.9970821718593625e-05,0.0036237080596799014,0.07912430441625395,0.007069004294707515
4,5.2916701526556585e-05,0.004568367941344417,0.06328216331781653,0.0072743866770028165
5,5.103633039118101e-05,0.004446456810907904,0.06778062565979859,0.007143971611868332
6,4.9292592186197325e-05,0.003199236032345829,0.08211713316124847,0.007020868335626075
7,4.5431631987264495e-05,0.003366281507020456,0.059320943630734854,0.006740299102210842
8,6.30109177233911e-05,0.0050513696500329745,0.07126743529988577,0.00793794165532793
9,4.4139736914318994e-05,0.0027469652200300763,0.09012270216313745,0.006643774297364289
10,5.627189383464989e-05,0.003922061245921222,0.07045464597912243,0.0075014594469775915
11,5.817753940162517e-05,0.0045815882850332185,0.06262983522104015,0.007627420232399945
12,4.611653987711475e-05,0.0032106137609194756,0.07476608554858188,0.006790915982186381
13,6.86124533813344e-05,0.005353328035800207,0.061920789208667504,0.00828326344995338
14,6.747898817092549e-05,0.004386290193496484,0.07054649793362722,0.008214559523853056
15,6.823012085333273e-05,0.00478154740672224,0.08654834489198127,0.008260152592617894
16,7.240497223277887e-05,0.005380391588081872,0.06536854414873994,0.008509111130592788
17,5.5602814606043055e-05,0.004500871334547628,0.062188087595746566,0.007456729484569115
18,5.920723329679235e-05,0.004611847514281852,0.0762386958562482,0.007694623661803865
19,6.34803546469666e-05,0.005154274615230513,0.08159650524679574,0.00796745597082068
20,4.8056909116630184e-05,0.004402808168458002,0.07619291058925448,0.006932309075382444
21,4.642130490467868e-05,0.004492295916155895,0.06496991527071794,0.006813318200750511
22,4.840501824273778e-05,0.004570779352776108,0.0600142401995476,0.006957371503861011
23,7.683902361323569e-05,0.005174705825517508,0.07991403448119794,0.008765787107455604
24,4.0763988652681724e-05,0.004006648382036427,0.07814023447762186,0.006384668249226524
25,5.8976143077495516e-05,0.004448989883611844,0.07568871002280941,0.007679592637470776
26,7.112384520858955e-05,0.0057942588289465,0.05817498548667466,0.008433495432416428
27,4.333958940667159e-05,0.004365587185233649,0.06658325167008528,0.006583281051775864
28,3.277427337788489e-05,0.003283481660748319,0.082056615919198,0.005724881953183352
29,5.4547350103824707e-05,0.004084989092539689,0.07824412142260517,0.007385617787553311
30,4.172019429344583e-05,0.003555642389081967,0.0782333764298162,0.006459117145047407
31,6.137877829353652e-05,0.00431965366815376,0.07207044124703943,0.00783446094466849
32,6.124358365353515e-05,0.00459345776192745,0.07200247448568209,0.007825827985174129
33,5.7324775068150376e-05,0.003842811913002915,0.07560346145484864,0.007571312638383803
34,6.795801051941845e-05,0.0047795736175204944,0.06582284046069736,0.008243664871852683
35,6.046261249448364e-05,0.004749232502116875,0.06326845372040285,0.007775770861752732
36,6.44780721436657e-05,0.0048200824539402064,0.060293808220083456,0.00802982391735117
37,6.922470478550979e-05,0.005423832345468573,0.07432679162704603,0.00832013850759165
38,5.762595234014499e-05,0.004611817162135621,0.06098388086926043,0.0075911759523900205
39,3.1176722383031385e-05,0.0033656122612951062,0.050806107754874485,0.00558361194774774
40,7.616707898196164e-05,0.005312540513200401,0.07993449230004401,0.008727375263042207
41,5.266414647797868e-05,0.00436968642584291,0.07784459509881914,0.007257006716131539
42,4.85268328038006e-05,0.003533332773456799,0.07571209718472716,0.006966120355247981
43,6.0493021430236266e-05,0.004639700603821887,0.0825501806534712,0.007777725980660111
44,5.6655601144451104e-05,0.005173625496599883,0.07255160914557224,0.0075269915068671735
45,7.176949145516019e-05,0.0047742264947544626,0.09163556935929124,0.00847168763914012
46,5.263975571597316e-05,0.0036344763283073936,0.08674334767182632,0.007255326024099317
47,6.969780408986156e-05,0.004145142326519583,0.08372723051826281,0.008348521072013955
48,7.089715530607263e-05,0.004368266900778185,0.08489061054248914,0.008420044851785057
49,6.0699624646760765e-05,0.005341427139184104,0.056051900721627135,0.007790996383439039
50,6.0881851895101196e-05,0.005325951875847186,0.06211964528151004,0.007802682352569578
51,5.9529416125917855e-05,0.004984862125855953,0.074846184347797,0.007715530838893551
52,4.2787924634953675e-05,0.0038423767757434354,0.06659654361404144,0.006541247941712121
53,6.696837907981025e-05,0.0054241173969306325,0.06436647156647357,0.00818342098879251
54,4.6578874819678585e-05,0.004066427210735385,0.07056573355512952,0.006824871780456996
55,5.911246905126644e-05,0.0035717754303241944,0.08445172749635343,0.007688463373865183
56,6.625438180763739e-05,0.005269234501344762,0.062124081312638024,0.008139679465902598
57,7.355270095993176e-05,0.00524776269615517,0.06839281622168358,0.008576287131383295
58,6.493569216078286e-05,0.004241009113539544,0.07604094960272917,0.008058268558492123
59,6.0733231398890476e-05,0.00493603511095099,0.06993698719009989,0.007793152853556124
60,6.483010744435882e-05,0.005426831935871511,0.06500355464827035,0.008051714565504568
61,7.058051417949732e-05,0.004965965863779771,0.07527948465963341,0.008401220993373315
62,6.511399009748682e-05,0.004769460800912875,0.07048695456660226,0.008069324017381294
63,5.9178039004448775e-05,0.004944021209042903,0.07199014418571892,0.007692726370049074
64,8.44922824121715e-05,0.006186456245167788,0.0741446336353424,0.009191968364402205
65,5.742622603983398e-05,0.0045315387614716885,0.07840348535885622,0.007578009371849153
66,6.342865431820215e-05,0.0037465971725212806,0.09852291560649551,0.007964210840893242
67,5.6627529021495e-05,0.003565917357490259,0.08702625414707832,0.007525126511992613
68,6.265836934180522e-05,0.003697076891954565,0.08191503303997205,0.007915703970071434
69,5.371691528039875e-05,0.0037578813161371328,0.08182165715990153,0.00732918244283756
70,7.284120044212339e-05,0.004688760701190611,0.07791142899131653,0.008534705644726293
71,8.490050015218168e-05,0.00558145138398314,0.07134299305130809,0.00921414674032172
72,7.598753097501559e-05,0.005178804300525684,0.08119201887471039,0.008717082710116657
73,5.928572259940091e-05,0.004918917626586506,0.06112452957556069,0.007699722241704618
74,7.589471081322884e-05,0.005433437450688143,0.07864900396993457,0.008711757045121745
75,5.4634269741213055e-05,0.003942866262566074,0.08652114579586678,0.0073914998302924174
76,6.646237986238895e-05,0.004509648315198829,0.06839436842720703,0.008152446250199273
77,7.289569576122542e-05,0.0048124082793850375,0.07574308552723164,0.008537897619509422
78,5.134978220694906e-05,0.004057477041076231,0.07218387735041976,0.007165876234414655
79,4.4595534554637855e-05,0.004311076514304322,0.07371803327167825,0.0066779888106103715
80,6.73558797933406e-05,0.004648378346824726,0.08781707561324748,0.008207062799402745
81,6.142460931490435e-05,0.004365424572237071,0.08395726209482035,0.007837385362153887
82,7.104439483748158e-05,0.004462058448834584,0.08990080362184982,0.00842878371044606
83,6.026954480025562e-05,0.004738910214656974,0.06584763121206016,0.007763346237303522
84,5.493171570293957e-05,0.004110670008430891,0.07123388297038424,0.00741159333092009
85,6.840924568334665e-05,0.004771992528146571,0.07330067272767904,0.008270988192673601
86,6.518458220811048e-05,0.005363334926082242,0.05918748824882436,0.00807369693561197
87,4.800520574177421e-05,0.0044412080254803326,0.054153830580427886,0.006928578912141634
88,4.9402050198578366e-05,0.0034802619726603218,0.09028917170151285,0.0070286592034738875
89,8.747969033498927e-05,0.00523335709452101,0.0907359812532853,0.009353057806674139
90,8.142870306440096e-05,0.005291994124186,0.0830538331740307,0.009023785406601856
91,5.300905207819163e-05,0.003715257939612538,0.06479404965434998,0.007280731562019792
92,5.42653359243923e-05,0.0048322556765713134,0.06864828247425869,0.007366500928147064
93,6.396954861039856e-05,0.0047362578784342834,0.0872377310831256,0.007998096561707529
94,5.0733287204509677e-05,0.004951368818097741,0.06502025358297114,0.0071227303195129784
95,6.3256908691255e-05,0.004248256814868633,0.07918595169882803,0.007953421194131133
96,5.3486573948862005e-05,0.003910791575699329,0.08380540331966957,0.00731345157561472
97,5.858308272253549e-05,0.003978989215230596,0.07991188361674251,0.007653958630835098
98,6.306562805412114e-05,0.003985549530802832,0.06943627182107592,0.007941387035910097
99,6.768700284366929e-05,0.005114955246524047,0.06827343890382126,0.00822721112186074
100,6.155933836162032e-05,0.004769130941358399,0.07006579793984447,0.00784597593430032
101,5.7971454160506414e-05,0.004595911650370603,0.05482132235731241,0.00761389874903166
102,6.788408201816468e-05,0.005287767424235066,0.06842117454777208,0.008239179693280413
103,6.002930594216968e-05,0.005074457541097009,0.05478962577531021,0.007747858151913269
104,6.650690458736483e-05,0.005276333278213036,0.07326980863342891,0.008155176551575355
105,5.125115026249684e-05,0.0032691898849543898,0.07426028674417795,0.007158990869004959
106,7.631790202445367e-05,0.004607850790090073,0.0761607846639043,0.00873601179168465
107,5.6973205826688035e-05,0.00325498790543908,0.08563756310928694,0.007548059739210319
108,6.958574737556396e-05,0.004000612853590285,0.06777615215147548,0.008341807200814634
109,6.26486947117781e-05,0.00388221115149663,0.0821271659765972,0.007915092842903215
110,6.279595257822546e-05,0.005263269322724438,0.07430483537519805,0.007924389729072202
111,5.4179705886964146e-05,0.004855520352382678,0.06095412625916863,0.007360686509216624
112,4.771777423881942e-05,0.0035066620087174302,0.08688876476446361,0.006907805312747242
113,5.5912889119891125e-05,0.00519253297846125,0.06129385775657781,0.007477492167825411
114,7.250468650786891e-05,0.004875711957657675,0.08744499152254637,0.008514968379733935
115,5.610703945739852e-05,0.00329773141025263,0.0928796545301731,0.0074904632338326045
116,6.016623859481559e-05,0.004072316160513783,0.07812693120771637,0.007756689925143018
117,9.711417229685883e-05,0.006065874682806339,0.05734223110654746,0.009854652317401045
118,6.304828996928412e-05,0.005307461451772915,0.052298462870200735,0.00794029533262355
119,4.664512170139865e-05,0.003668480864694115,0.06924714891047268,0.006829723398601011
120,3.636436475791578e-05,0.0032532404958903294,0.0798847206681721,0.006030287286515911
121,6.005760694235548e-05,0.005051166363165469,0.04304594216687185,0.007749684312432025
122,3.775968007800082e-05,0.004025420730685145,0.07815048362007015,0.006144890566804302
123,6.442898251301347e-05,0.005107093892106293,0.07181012833617562,0.008026766628787261
124,5.909611375947591e-05,0.003985738941618801,0.07861899858115828,0.007687399674758406
125,7.55783983149809e-05,0.004830963514220154,0.07840329919955424,0.008693583744059744
126,6.492585386359136e-05,0.004946563399532901,0.07289169445347987,0.008057658088029728
127,5.7158775025935516e-05,0.004833187135561349,0.050236387187607257,0.0075603422558727556
128,7.545029456695987e-05,0.005412142623231839,0.0768185091167366,0.008686212901314333
129,6.556254936623052e-05,0.005419344353955264,0.0715341808914941,0.008097070418752085
130,5.541688673672784e-05,0.005040260301505971,0.07206656806035322,0.007444251925931007
131,7.922292387156116e-05,0.00561800046843548,0.05824143615393029,0.008900726030586495
132,6.687434124208796e-05,0.004344842706102941,0.08828797249465636,0.008177673339164828
133,5.195344300497508e-05,0.004612805176054177,0.05768091954211507,0.007207873681258222
134,5.359517085132721e-05,0.004984838573120337,0.07959917418920304,0.00732087227393885
135,6.3569042002696e-05,0.0051604680472629285,0.0684055648612587,0.007973019628891895
136,4.70350776053468e-05,0.0029787106344342468,0.06895476369092074,0.006858212420547095
137,4.079441243795441e-05,0.004212012381509254,0.0739263735152349,0.006387050370707436
138,8.385342917244656e-05,0.005141211885355898,0.07959489095422168,0.00915715180459763
139,6.937842806060035e-05,0.004923731030512607,0.062157970182956435,0.00832937140849176
140,6.823125947657986e-05,0.004075580389709077,0.09405377746852672,0.008260221514982478
141,5.61960765514642e-05,0.004494518105195165,0.07900327427002207,0.007496404241465632
142,4.73098406515298e-05,0.003916396060509916,0.07064322386697208,0.0068782149320539224
143,4.8195923856377333e-05,0.004258996676853182,0.07793489406123966,0.006942328417496336
144,3.709376540623444e-05,0.0035593668264678325,0.06664672579117648,0.006090465122323117
145,6.326400327793063e-05,0.0036231429298531725,0.08398472293246617,0.007953867190111368
146,7.212801757273351e-05,0.0048845067901878035,0.08075976969517384,0.008492821531901661
147,4.801887053828851e-05,0.004056127818216648,0.08213093513471126,0.006929564960247386
148,5.306751788060507e-05,0.004473543845911263,0.06949606197203329,0.007284745560457448
149,7.8316615827286e-05,0.005434363045835032,0.0507965159118835,0.008849667554619509
150,3.694266454104485e-05,0.0029942673482591213,0.05601864695922572,0.006078047757384323
151,5.349929510728209e-05,0.004568879456781957,0.0707660062518074,0.0073143212335309475
152,4.5534598766371826e-05,0.004103779916885917,0.09050861298304103,0.0067479329254499475
153,5.499266959175448e-05,0.004364111746647715,0.07771137387243154,0.007415704254604141
154,9.50407400618069e-05,0.005700050404216757,0.07189603408730427,0.009748884041868893
155,4.829097357082059e-05,0.004172026663253002,0.06667170973627656,0.006949170711014386
156,6.925317739248554e-05,0.0047891188419439705,0.07787086373715546,0.008321849397368623
157,6.788505898699535e-05,0.004187274705497596,0.09555774133068606,0.008239238981058572
158,4.826391036675653e-05,0.004315823481033826,0.0736062455671318,0.006947223212676831
159,5.7197658633771316e-05,0.004496321703163833,0.059784207075444185,0.0075629133694477026
160,5.7531174587313995e-05,0.005086269126575971,0.05585246088175033,0.007584930756922797
161,6.583763798542075e-05,0.005374185398761408,0.06848778731704819,0.008114039560257273
162,7.574820037642453e-05,0.005262912543859686,0.07958126637700769,0.008703344206477398
163,5.1194731947372305e-05,0.004566061141055525,0.06546938016576842,0.007155049402161504
164,6.278892139185781e-05,0.00536604380533509,0.07691642684826316,0.007923946074517251
165,7.99496996105102e-05,0.005507099582870454,0.07653294098392172,0.008941459590609852
166,7.870236331162485e-05,0.004305976003881086,0.090206721206739,0.008871435245304126
167,6.117431676047143e-05,0.005065837208067598,0.06833469886570409,0.007821401201860891
168,7.200541817672668e-05,0.005375386915787701,0.08403595810749698,0.008485600637357755
169,7.68432627010491e-05,0.004584813233096416,0.08749478490661916,0.008766028901449513
170,4.379218223379449e-05,0.004413648969156281,0.05889564264895064,0.006617566186582069
171,4.7444467252087284e-05,0.004388653787930872,0.05569473085155008,0.006887994428865836
172,6.351442389516848e-05,0.0053690522361825935,0.05001884472804141,0.007969593709541764
173,6.90862841089177e-05,0.004436075523362185,0.08284363128403482,0.00831181593329139
174,5.252374926854163e-05,0.004789620081728979,0.07050176310870704,0.007247327043023613
175,4.9763845862257005e-05,0.004020216633922219,0.0808403692735773,0.007054349428704003
176,6.035067242853432e-05,0.004095895644925392,0.08277901769745843,0.007768569522668506
177,5.9108953670343166e-05,0.0044158927568087114,0.0690246626280655,0.007688234756453699
178,5.892648443229828e-05,0.005258323043705822,0.07463249797877314,0.007676358800388225
179,3.046303373235723e-05,0.0032473541331454092,0.06317710505034047,0.005519332725280932
180,4.7681437498227865e-05,0.004045899351194434,0.08167469716023046,0.006905174689913899
181,5.4178993623696094e-05,0.004404655721013599,0.06630337878111375,0.007360638126120281
182,7.260824710330016e-05,0.00533463532620013,0.0718045974405479,0.008521047300848624
183,6.0152291298379016e-05,0.0038934202033809357,0.07362588244391999,0.007755790823531735
184,7.649255935276332e-05,0.005862821139427603,0.054301413824497935,0.008746002478433391
185,6.506205005973791e-05,0.003087432991769799,0.09143050500445432,0.008066105011697812
186,5.541255353763418e-05,0.004842231886897667,0.07263904952555489,0.007443960876954794
187,5.965215785306152e-05,0.005285287178458857,0.0634114938590633,0.007723480941457756
188,5.797483561825256e-05,0.0041510300877034495,0.0751201127031269,0.007614120804022738
189,7.276026660677092e-05,0.004485899851222658,0.09205278626223246,0.008529962872531762
190,6.003920159984769e-05,0.005029721518760307,0.062029022572982484,0.007748496731614935
191,6.286330272386683e-05,0.005292432013756596,0.06497780980897705,0.007928638138032663
192,6.682560752665536e-05,0.004066570455451273,0.07676567357927233,0.008174693115136165
193,7.8567894346883e-05,0.0052237378688740265,0.05832883693719193,0.008863853244886331
194,6.904190163114849e-05,0.003911421181920008,0.0801032048799013,0.008309145661928672
195,6.755232728759903e-05,0.004526750927493118,0.07302864154329969,0.008219022282948161
196,8.732932847855268e-05,0.006063366444783237,0.06564682574562464,0.009345016237468605
197,6.245784549271455e-05,0.005044745579931921,0.06908672348105727,0.007903027615585942
198,7.046114343107621e-05,0.004083041963305405,0.06903738309170993,0.00839411361795128
199,5.2201296664448e-05,0.003828462940418576,0.08593540507596087,0.0072250464818191616
200,5.2443889260043e-05,0.004359426168070102,0.07275422244753305,0.007241815329048559
201,6.725931416412083e-05,0.004094733462820495,0.09105344295814455,0.008201177608375528
202,6.676427019085917e-05,0.004508168432237424,0.07709802484009387,0.008170940594011128
203,5.5315365553984315e-05,0.004669781762288175,0.0683716451441061,0.007437430036913563
204,5.107933926579341e-05,0.004276675529858265,0.057119289920413596,0.00714698112952546
205,7.237696494990668e-05,0.004764442170648702,0.08208296215604705,0.008507465248233832
206,6.977007163071794e-05,0.004798263694891391,0.07608186022351887,0.008352848114907736
207,5.588124177005806e-05,0.0039028506231510787,0.07384311638652963,0.007475375694241595
208,6.140762965740093e-05,0.004857768017752178,0.06446512061592546,0.007836302039699617
209,8.112205831582054e-05,0.0051330449875384605,0.08534381310289163,0.009006778464901851
210,6.68310000360922e-05,0.004944508500687783,0.06482499668067021,0.008175022937955094
211,4.7060721838012635e-05,0.0045659192066380685,0.06885576329281573,0.006860081766131695
212,4.717796670070622e-05,0.004211829986542834,0.08306498560182396,0.006868621892396353
213,5.725597367568326e-05,0.004873618536780932,0.07937152920835988,0.007566767716514291
214,5.323731233474761e-05,0.004285568518877369,0.06084513490629506,0.007296390363374695
215,6.090261097518099e-05,0.005047262164836226,0.07686671572738568,0.007804012491992861
216,5.5551685454955414e-05,0.004668799358611135,0.0681623601447785,0.007453300306237142
217,6.359636531698347e-05,0.004813614565659156,0.07433987749204163,0.00797473293076218
218,5.353494208998564e-05,0.004250752368601292,0.07208896183110491,0.007316757621377466
219,4.90316085609133e-05,0.004664586859252642,0.06800265981137507,0.007002257390364398
220,6.008412207778103e-05,0.004864102993568823,0.06992557570467373,0.007751394847237517
221,7.13461560216931e-05,0.00485053789210404,0.07502017847582221,0.008446665378816236
222,8.621997589550354e-05,0.004828489822851601,0.07472302519299934,0.00928547122635697
223,7.874157587805578e-05,0.0048003754043955725,0.09323806310527338,0.008873645016454903
224,6.303182478808814e-05,0.005102858285446465,0.04968437085263666,0.007939258453286902
225,6.497821653153709e-05,0.004834992692856154,0.073792808161388,0.00806090668172859
226,6.849224097767752e-05,0.00546574698718498,0.05435288517619252,0.008276003925668298
227,8.786865125234336e-05,0.006116353593213704,0.059121853356304044,0.00937382799353296
228,6.008047986543907e-05,0.005122157091972765,0.05878891690566812,0.007751159904520017
229,4.6619917449352744e-05,0.003769718843486328,0.07959663971092024,0.006827877960929914
230,6.86633584181698e-05,0.005052385282783003,0.08601433283985932,0.008286335644793101
231,4.907735663258128e-05,0.004090578622548371,0.06465964033706495,0.007005523294699754
232,6.031088024243864e-05,0.004688575171651513,0.05881221861202879,0.007766007999122727
233,6.774892155670362e-05,0.005622962656178028,0.05991810091539662,0.008230973305551599
234,5.763179136167153e-05,0.004907741043155882,0.06434050166085914,0.007591560535335988
235,4.074149880205982e-05,0.003388085309450338,0.06866424697510176,0.006382906767457874
236,6.200702845653631e-05,0.004229057450399465,0.0807148013344734,0.007874454168800255
237,5.007484055167137e-05,0.004572548326749787,0.07260543607256986,0.007076357859214783
238,5.4599382343026194e-05,0.0049349493072626685,0.0624090206762935,0.0073891394859635475
239,7.474831112837329e-05,0.004221372473045407,0.07630820039362352,0.008645710562375591
240,3.8705414191217704e-05,0.003830182907973602,0.08020538063119442,0.006221367549921588
241,7.29831260615212e-05,0.005759860656226531,0.0630217457524623,0.008543016215688717
242,6.957481835207874e-05,0.004410547674500816,0.07170001347249122,0.008341152099804794
243,6.389438818340092e-05,0.004945975060190479,0.07567529096874881,0.007993396536104076
244,5.552753955858463e-05,0.004452343088924787,0.07687628873300367,0.00745168031779301
245,5.2050269280459996e-05,0.003629602592990073,0.0867224973559182,0.007214587256417352
246,6.991371279586565e-05,0.0055195412891574916,0.05672546042401905,0.008361442028493945
247,5.6684562725886126e-05,0.004549676353923989,0.0776974550878955,0.007528915109488585
248,5.529226037520657e-05,0.004344840567776396,0.08065944328944585,0.007435876570735011
249,5.253534209308707e-05,0.004562977283679449,0.07578380946931063,0.00724812679891065
250,5.6215152700737664e-05,0.0036433506563125924,0.0785550378290365,0.007497676486801601
251,6.763771372461918e-05,0.004546248615160895,0.0751135655754731,0.008224215082584991
252,6.367503757226473e-05,0.004596735455156837,0.08523563621248709,0.00797966400121361
253,4.986834344292504e-05,0.0048230715223884,0.06887393183250623,0.00706175215105462
254,6.316737696511135e-05,0.004816471146170165,0.06706978512176662,0.007947790697112678
255,6.531623750350628e-05,0.00437620486466977,0.06529254772423387,0.008081846169255268
256,6.0583035741937404e-05,0.004782517117565579,0.07253199375563923,0.0077835105024620455
257,6.131645023735724e-05,0.004789295091855297,0.06229116858571168,0.007830482120365048
258,6.135649357262819e-05,0.004723226542118229,0.07872836679401551,0.007833038591289308
259,4.5218517291831515e-05,0.003213422133872918,0.08585608471000494,0.006724471525096322
260,8.612158151117787e-05,0.006156171802032973,0.06148756187872073,0.00928017141604492
261,7.072594281896556e-05,0.004620189076064761,0.08306213325152134,0.008409871748068754
262,6.382000811584983e-05,0.004279748466452867,0.07248749487439454,0.007988742586655901
263,6.296382261886304e-05,0.004060802699978633,0.08110194011765037,0.007934974645130424
264,6.350492533879384e-05,0.005368091682331252,0.06364577937112159,0.007968997762503977
265,6.47723609617389e-05,0.004931710532088747,0.0644983532529233,0.008048127792333968
266,6.55533466791787e-05,0.005329993427332759,0.06872252622584485,0.008096502126176353
267,6.094265091058242e-05,0.0046363135330761245,0.07062554406918195,0.0078065774133471546
268,6.821322175283283e-05,0.005457784698239903,0.06158208125117648,0.008259129600195907
269,3.6976852895618544e-05,0.0037984145979499426,0.0662743798798422,0.006080859552367445
270,6.22158098856418e-05,0.004987067456981109,0.07590412452951067,0.007887699910977937
271,6.097656115082089e-05,0.005209970784461716,0.06714341129236345,0.007808749013178769
272,3.7816450495098025e-05,0.0036763758940467264,0.07991805984558287,0.006149508150665204
273,4.408687655266157e-05,0.004187926703996128,0.07467389802607827,0.00663979491796706
274,5.560446455083111e-05,0.004838222526588582,0.07997435682551313,0.007456840118363173
275,7.73953752216751e-05,0.004915064819368833,0.0891104886835099,0.008797464135856121
276,7.726416853811525e-05,0.005275909514596882,0.08519561036789192,0.008790003898640491
277,5.756324870361367e-05,0.0043154720409163206,0.07776534720341255,0.007587044793832022
278,5.164544107950962e-05,0.004807966436368075,0.05386631040886458,0.007186476263058899
279,3.9911075570462226e-05,0.0035434815991670383,0.06320446736555985,0.006317521315394362
280,6.375344954125649e-05,0.004693247310653162,0.059939008204413335,0.007984575727066245
281,4.059025985343543e-05,0.003033680485031038,0.07045307540438106,0.006371048567813247
282,5.3433039560634975e-05,0.00453360624416942,0.06945650207764675,0.007309790664624703
283,6.945340791791685e-05,0.0051693964761407255,0.0878609887653401,0.008333871124388485
284,6.090260812918368e-05,0.00485132337154904,0.08291738969482298,0.007804012309650949
285,6.559861439610488e-05,0.0050848758816370914,0.07503725491674373,0.008099297154451386
286,4.756649416250568e-05,0.0042345012709224744,0.06685947056425601,0.00689684668254307
287,7.661337543782519e-05,0.004861621588388244,0.09185644624791056,0.008752906685086078
288,6.647301927511521e-05,0.0046270135977256035,0.07697118508477896,0.008153098752935285
289,5.92879560298313e-05,0.003976899493411377,0.08469240105076037,0.0076998672735204615
290,4.549177250131447e-05,0.00435942448081205,0.06895664671523427,0.0067447588912661945
291,6.0047063841577915e-05,0.004908982481008113,0.06167358878751461,0.00774900405481744
292,5.79759078401735e-05,0.00457625471340295,0.06762723962065287,0.007614191213791047
293,6.008182392512352e-05,0.004861477427350332,0.06083627276635162,0.007751246604587085
294,5.3595152035763154e-05,0.004041111046974229,0.07043194671714614,0.007320870988875783
295,5.115834827606751e-05,0.0040553110687851415,0.07653055966125422,0.007152506433137044
296,7.706376130130325e-05,0.005877544735440182,0.056878142191932435,0.008778596772907514
297,7.059891007083559e-05,0.004709853231121383,0.08234134154419692,0.00840231575643498
298,5.311084179939045e-05,0.004563184506017372,0.04739155902184933,0.007287718559287937
299,4.7996371666382376e-05,0.004219045965152251,0.058181882647077465,0.006927941372903068
300,7.592388551456667e-05,0.0053570946716457075,0.06079502529433556,0.00871343132838985
301,6.380921587249245e-05,0.005369148394444808,0.06706437873773452,0.007988067092387986
302,6.339210931893377e-05,0.005177015793187525,0.06035348524865114,0.007961916183867629
303,5.361345064914554e-05,0.0042510401496358525,0.08419485816605654,0.007322120638800253
304,6.083195631714274e-05,0.004190944996869,0.07442991636283747,0.007799484362260252
305,5.6392135438660136e-05,0.004489620991692554,0.0793854268214389,0.007509469717540636
306,7.242936878183197e-05,0.004521853663474913,0.06800663679389984,0.008510544564352573
307,5.9575686211446076e-05,0.004467957207613919,0.07413432231871209,0.0077185287595140616
308,5.280559181383328e-05,0.004405645825897429,0.05550726312148968,0.007266745613672815
309,7.21487650442756e-05,0.0034175528324393517,0.08637957962498621,0.008494042915142025
310,4.300398774053521e-05,0.004130951121596665,0.07066301665297825,0.006557742579617986
311,5.341807053433265e-05,0.004659120298290595,0.07649807992031388,0.007308766690374792
312,5.8492940915652834e-05,0.004787938086996439,0.07911551331464128,0.007648067789687318
313,7.194955473603713e-05,0.004864200459447884,0.0732584644289549,0.00848230833771306
314,6.425318722363306e-05,0.004508404574270858,0.08209496241264169,0.008015808582022952
315,5.27883986674734e-05,0.003271971339667342,0.08506386185939885,0.007265562515557424
316,5.2168623624335555e-05,0.004120721686376243,0.06475347656438801,0.007222785032405097
317,6.733450067576925e-05,0.005358239711656694,0.07487528599594873,0.008205760213153255
318,5.642266399245103e-05,0.003861133386356453,0.08940923150905311,0.007511502112923262
319,6.046799709085078e-05,0.004651926048390838,0.07481387176791676,0.007776117096009449
320,5.706164673681185e-05,0.0046439709578922,0.07294060512889566,0.007553915986878028
321,6.112239788036398e-05,0.00446781642702896,0.07034653005163438,0.007818081470563202
322,6.115902567577386e-05,0.005355891852619482,0.05800543723354412,0.007820423625084082
323,4.723541329648692e-05,0.003919970369760248,0.07533456913873016,0.006872802433977458
324,4.11076367805403e-05,0.0038267229365974887,0.07008424706271033,0.0064115237487308695
325,5.8827744177499006e-05,0.003419991258906612,0.08744101658798398,0.007669924652661095
326,5.191448942567334e-05,0.004248009051818241,0.06578208754171655,0.007205171019876849
327,6.214367830001298e-05,0.004701250730392376,0.08133065014645346,0.007883126175573517
328,6.027337803560451e-05,0.004885347908336362,0.07921620404616503,0.007763593113733096
329,6.714007774020499e-05,0.005573483150666446,0.06401153569738849,0.008193904914032398
330,6.422065674247393e-05,0.005282579067701543,0.07778169756040754,0.00801377917979236
331,6.906082529777266e-05,0.0045070609137274,0.08019199662266363,0.008310284309081888
332,4.995081789780924e-05,0.004624689333467576,0.0646226798443994,0.00706758925644444
333,4.941612801313576e-05,0.004290713537262067,0.07772399972016952,0.007029660590180407
334,6.054651976926887e-05,0.004657942863991837,0.08676427701774347,0.007781164422454286
335,5.083165557509262e-05,0.004661165003506828,0.060999365038090225,0.0071296322187818445
336,4.445883061438272e-05,0.004354776991422973,0.062121930243319134,0.006667745542114096
337,6.19319276328268e-05,0.004438527769233734,0.09103032748139217,0.007869684087231604
338,5.8783918965407645e-05,0.003549914883053044,0.08594222718075106,0.0076670671684423855
339,5.3797508751013316e-05,0.003877034377530518,0.08415117258688243,0.007334678503589182
340,5.7508228459503816e-05,0.004993142688150574,0.06675475005472498,0.0075834179931943205
341,6.681629598687596e-05,0.005231282527232625,0.06902935206425687,0.008174123560778597
342,6.819086336784476e-05,0.005553440452785126,0.06876536752983975,0.00825777593349713
343,4.7086680553357046e-05,0.0037721558646051363,0.07118509254921357,0.006861973517389641
344,6.560496924489675e-05,0.00467592854682681,0.0761767147807858,0.008099689453608488
345,4.104800902586712e-05,0.0034208697853314427,0.07771206360702543,0.006406872015723963
346,6.619117452004406e-05,0.0048329424638155405,0.0824332476598415,0.008135795875023121
347,5.244738557925961e-05,0.0048572087294333835,0.06971239229388981,0.00724205672300756
348,9.41290039686101e-05,0.0053115348943021425,0.09278316336925041,0.009702010305529937
349,5.3239239486784146e-05,0.0045236766011770985,0.06004193545357328,0.007296522424195211
350,6.150885388034617e-05,0.004668551009321115,0.06586013213380282,0.007842758053156148
351,7.737689012582293e-05,0.0051765062992651266,0.07437090547610503,0.008796413480835373
352,5.8248287368560184e-05,0.005015447218970781,0.07797671372855097,0.007632056562196024
353,6.394902308343572e-05,0.00513034103575428,0.07640963354486319,0.00799681330802685
354,5.2272286813009795e-05,0.004973384493594497,0.06818380175501071,0.007229957594136317
355,5.92590278062307e-05,0.004712183634756832,0.057597855634745176,0.007697988555865106
356,3.786505719750949e-05,0.00412918759391207,0.04938650986505966,0.006153458962039892
357,4.733036240821136e-05,0.00421639642089135,0.06532542631980481,0.006879706564106561
358,6.220519537129998e-05,0.004767514269326315,0.07525385148795483,0.007887027029958695
359,8.598954688327366e-05,0.00519426490536027,0.06979646821661789,0.009273054884086114
360,7.039128681740224e-05,0.00409449009791825,0.0666868631497004,0.008389951538441775
361,5.360055170949436e-05,0.004708417311376137,0.07645740959030256,0.0073212397658794035
362,4.857844992578011e-05,0.00367419730221746,0.07118399067038572,0.006969824239231535
363,5.062048618238338e-05,0.004441218232033874,0.07674506168635808,0.007114807529538861
364,4.724325734840195e-05,0.00428653340098083,0.07375929091573097,0.006873373069199861
365,5.648297169080079e-05,0.0037686541684522307,0.08944716252353135,0.007515515397549287
366,5.30072522977984e-05,0.004162274028081639,0.08307310067888718,0.007280607962100271
367,6.282203717264708e-05,0.0039008518841499467,0.0852623863693518,0.00792603540066826
368,4.8656452202218355e-05,0.004050107175503304,0.07032107932228726,0.00697541770808158
369,5.7877671237512874e-05,0.004122311921256744,0.064935164367399,0.007607737589948262
370,4.8373515635434184e-05,0.004481868062586657,0.07392879115193551,0.006955107162038114
371,8.231948129869125e-05,0.005077970158656759,0.08549572012117856,0.009073008392958234
372,5.311130648790397e-05,0.004446880855570307,0.06733919111082187,0.0072877504408358695
373,5.5126006045284404e-05,0.004105822813324924,0.0773686315244646,0.007424688952763206
374,4.206639627102418e-05,0.00355731055928993,0.07338554488706261,0.006485861259002047
375,7.321868737683917e-05,0.004902801649718496,0.07493439701182147,0.008556791885796831
376,8.717076741949478e-05,0.006187890653092036,0.0625790733382514,0.009336528660026402
377,7.096710091079575e-05,0.005649668679103614,0.05785107397743228,0.008424197345195282
378,6.375357131708736e-05,0.004281919085944101,0.07121500042504686,0.007984583352754643
379,6.391899948172066e-05,0.0040810849384454615,0.0677047160281159,0.00799493586476591
380,6.988864912973834e-05,0.005308090830714302,0.06904831953497093,0.008359943129575569
381,6.178577456742419e-05,0.003893626211782618,0.08485828248352822,0.007860392774373512
382,6.395235925985231e-05,0.00404271213328452,0.0825505084777367,0.007997021899423078
383,4.340649465941668e-05,0.004526903998438559,0.06254552098632038,0.00658836054412753
384,6.569323132244839e-05,0.003820127844912174,0.08392153574367064,0.008105136107583151
385,4.003767739348943e-05,0.003920938215729162,0.07077259062150064,0.006327533278734225
386,7.527303279378704e-05,0.005185135550419272,0.07884752873802536,0.008676003273039148
387,6.0291978830655075e-05,0.003947466572854208,0.08299895926650347,0.007764790971472096
388,4.717589129333402e-05,0.004520172963201153,0.08272969846847911,0.0068684708118571395
389,6.688023194011406e-05,0.005493052546571894,0.06341997928433385,0.008178033500794305
390,7.371952880596686e-05,0.003709117382235666,0.08604210510962318,0.008586007733863634
391,6.21235043355765e-05,0.004643461387801416,0.07391116538261633,0.007881846505456439
392,4.9300040929538064e-05,0.0038121585544125605,0.07950879729323024,0.0070213987872458725
393,8.207919849605574e-05,0.005266160835834347,0.07630725987503983,0.009059757088137372
394,6.413300553525902e-05,0.005497998167404077,0.06487617791999689,0.008008308531472696
395,6.707937067018327e-05,0.004164270481356409,0.07596197019645423,0.008190199672180315
396,5.546977224142576e-05,0.003384638985540666,0.06357113764233047,0.007447803182242746
397,4.7455155543778147e-05,0.004518808712476305,0.07481073699914464,0.006888770249019617
398,6.666610611290304e-05,0.0050881227735337,0.07338361911626956,0.008164931482437715
399,6.334201380336925e-05,0.004734740047281273,0.06902871586923931,0.007958769616176148
400,6.627418260205359e-05,0.0049423623526207335,0.07546665800800945,0.008140895687948178
401,5.652512922172255e-05,0.0038417917304591626,0.06492171157743787,0.0075183195743279115
402,8.183395041623698e-05,0.004813272792337901,0.07576745251703798,0.00904621193739325
403,4.845468033750437e-05,0.00375480303637441,0.060404051232936906,0.00696093961599324
404,6.481023878457374e-05,0.00454994076725506,0.08842248067711367,0.00805048065549961
405,7.477837434397724e-05,0.0054086979764192385,0.07996449917915904,0.00864744900788532
406,6.490448451929972e-05,0.004363468601840268,0.07329359120272283,0.008056331951905853
407,4.9625743789889705e-05,0.004608576469532786,0.05582891823369662,0.00704455419383581
408,7.902966995974245e-05,0.005079107710450672,0.0886314686443137,0.008889863326268954
409,7.619381493529372e-05,0.005753009801913754,0.05862513916808776,0.008728906857980176
410,7.233258379722795e-05,0.005549574460235944,0.05877612966642842,0.008504856483047036
411,5.782075698123689e-05,0.004865753536752837,0.07605329627748159,0.007603996119228108
412,7.285314066600655e-05,0.00577775965293536,0.06813434303606858,0.00853540512606203
413,7.615202726483118e-05,0.005132675933422085,0.09418703136996864,0.008726512892606666
414,4.9820406395753164e-05,0.004153250471193558,0.07424060916509712,0.007058357202334879
415,5.3809098558670203e-05,0.004787153986269645,0.06896821916394291,0.007335468530276013
416,6.188336505609105e-05,0.004257037674669216,0.10249059330725707,0.00786659806117553
417,5.858034354706394e-05,0.004874588821967048,0.07515669213500598,0.007653779690261769
418,4.887815739553076e-05,0.004093419259331118,0.08556239592259055,0.006991291539875188
419,6.0990864188722384e-05,0.0052751533393063715,0.06143120254348855,0.007809664793620883
420,4.225044471601639e-05,0.003823417940489143,0.08024408808029193,0.006500034208834307
421,7.679466899634798e-05,0.005613817139801629,0.07973244525399226,0.008763256757413154
422,7.117910876592231e-05,0.004597024975912855,0.07685275381150358,0.008436771228729746
423,7.293110970726054e-05,0.00524789352227513,0.07124320965837239,0.008539971294287792
424,3.8303344608360045e-05,0.003299461892912535,0.07999421862236122,0.006188969591810882
425,4.395175513938584e-05,0.0040308827098184,0.07312427057510007,0.006629611990108117
426,4.094184963872355e-05,0.002864572793754255,0.08942723105712558,0.006398581845903278
427,5.741015868038899e-05,0.00462142692273246,0.07839754499011375,0.0075769491670717145
428,5.186453224755432e-05,0.0035854332251883453,0.08631218487019598,0.007201703426797987
429,4.056882249006022e-05,0.0034249120274437625,0.052860247190530174,0.006369365940975592
430,6.553606134619061e-05,0.0047253685520114806,0.08539239836012946,0.008095434598969341
431,6.841005667248019e-05,0.00530363039599855,0.06083049138288965,0.008271037218661279
432,5.0842559942975625e-05,0.004262808849361704,0.07600691568588047,0.007130396899400133
433,5.889044451563752e-05,0.005035584754393517,0.06897089462945027,0.007674010979640117
434,6.73961678070987e-05,0.004294019515451122,0.08374785540578156,0.008209516904611261
435,6.640858090542468e-05,0.004722218890271482,0.07696687508174005,0.008149146023076549
436,8.695399190298159e-05,0.005904055337426802,0.07272328304690578,0.009324912434065089
437,6.824697896158113e-05,0.004444479861211961,0.08809149807853256,0.008261172977342903
438,4.926357111748191e-05,0.0045232007960656255,0.04293737506633771,0.007018801259295026
439,7.007842208966582e-05,0.004498846675815715,0.07597554729679468,0.008371285569711824
440,5.516704424736396e-05,0.004123939321897182,0.07629924106707997,0.0074274520696779546
441,7.351454806271933e-05,0.005224433905800472,0.06499405204875641,0.008574062518008557
442,5.653778070408762e-05,0.004896971192173006,0.08073769552086318,0.007519160904255708
443,5.614710946184983e-05,0.005184958897774123,0.055056049604581325,0.007493137491188141
444,8.165166336351183e-05,0.005458088805343461,0.08245449087501167,0.009036130995260737
445,7.562757187207716e-05,0.004743222198302618,0.08421435975615199,0.008696411436453323
446,6.12006837342041e-05,0.005285903047915995,0.06429514778739698,0.007823086586137434
447,6.408839897082971e-05,0.004788227069953047,0.06066683178808496,0.00800552302918611
448,5.934086535509794e-05,0.004023305410229123,0.05038028018221663,0.007703302237034292
449,6.63361631980124e-05,0.00490984024735503,0.09267745197767852,0.008144701541371042
450,6.055752433495728e-05,0.004360469402536437,0.07095262019626136,0.007781871518790116
451,7.200531249777614e-05,0.003976377731322618,0.07358870026904472,0.008485594410397868
452,5.7389331249404e-05,0.003921827705584607,0.10061747917497421,0.007575574648130881
453,5.0739729431437916e-05,0.004556333761228829,0.07031847321136464,0.007123182535316441
454,5.474689844125893e-05,0.0046919070234492,0.06610776621316017,0.007399114706588799
455,5.683475582144492e-05,0.0036488055067421276,0.0730053636242992,0.00753888292928364
456,5.314601598179076e-05,0.004137702488732918,0.07253867549517845,0.0072901314104609795
457,7.21286356301627e-05,0.005273392626804965,0.06708991712305545,0.008492857918872896
458,5.0237807247556297e-05,0.004371000121423944,0.08170074682618056,0.0070878633767558095
459,5.403669698593484e-05,0.003245165617921194,0.07695433539266894,0.007350965717913147
460,6.645394161648511e-05,0.00509207955022635,0.07564401555463052,0.008151928705311657
461,7.902341414610624e-05,0.005876259804235296,0.06843613518910452,0.008889511468360093
462,7.613042511567569e-05,0.004979303894624772,0.08720792297826918,0.008725275073926043
463,5.578744157253114e-05,0.004506513510323623,0.0785606042560727,0.007469099113851041
464,4.772490707081724e-05,0.003274772591914471,0.0853262250655058,0.006908321581311679
465,4.38642460055204e-05,0.003484890884808553,0.08893179206223234,0.006623008833266005
466,6.444801803428704e-05,0.005129259341945065,0.06939080084962679,0.008027952293971794
467,5.044480674034597e-05,0.004512933463862014,0.06269700481666618,0.007102450755925417
468,4.428308493047733e-05,0.003734743025884895,0.07614999465510408,0.006654553698819855
469,4.522659933619772e-05,0.003945236336736247,0.07520874164394353,0.006725072440962784
470,5.135117297079258e-05,0.004588627315947595,0.06200239041217159,0.007165973274496097
471,6.068025355551273e-05,0.005044727114391346,0.07341472446074038,0.007789753112616097
472,6.780966461934232e-05,0.0055482776005728015,0.07230059395043842,0.008234662386482025
473,6.48590177424479e-05,0.005652020727191639,0.04437845522902695,0.008053509653712944
474,5.435510049750193e-05,0.004245245009047367,0.0808276588053487,0.007372591165764019
475,6.532381324562745e-05,0.00526437865030057,0.06143528899225187,0.008082314844500121
476,5.181701408951349e-05,0.0037560623343626427,0.07348934258965056,0.007198403579232892
477,5.697804439355837e-05,0.004750700326738477,0.07191307495996124,0.007548380249666687
478,3.822050878078986e-05,0.004184651433771194,0.05394773648091311,0.006182273754921362
479,4.4905552842441915e-05,0.004261989423655696,0.05542479599893696,0.006701160559368942
480,6.0871739842691885e-05,0.004861287724579446,0.07449447433935275,0.007802034340009727
481,7.192193405266275e-05,0.00554760803343354,0.07158588081670691,0.00848068004659191
482,6.13714559880445e-05,0.003910897401522737,0.09790315080959733,0.00783399361679879
483,4.471974725920132e-05,0.003530593408732165,0.07652018677235572,0.00668728250182396
484,6.314433614904572e-05,0.004285775164889831,0.07640375132561639,0.007946341054161027
485,7.267148156228681e-05,0.004234194046608068,0.0664213156548179,0.008524756979661407
486,6.598374186709306e-05,0.005329076255425347,0.07207086189915168,0.008123037724096355
487,3.3551909334278094e-05,0.0037162231625899123,0.05414836681936297,0.0057924009990916354
488,5.411304166472929e-05,0.004439771146052782,0.07320950489249778,0.00735615671833662
489,6.530626231789623e-05,0.005216006738613534,0.06630051542426418,0.008081229010360727
490,5.1031684236505915e-05,0.004688014033362476,0.0716232623647386,0.00714364642437638
491,4.323266574378204e-05,0.004207369878673964,0.08001451388296932,0.006575155187809771
492,8.354095511511463e-05,0.005646196192749384,0.05424442390172901,0.009140074130723125
493,6.349073926423154e-05,0.00464473346453365,0.07005685189610489,0.007968107633825668
494,6.382177943512665e-05,0.004744411498003609,0.07157122309594799,0.007988853449345915
495,6.225930310680654e-05,0.004663047501413949,0.08021619887856046,0.00789045645744314
496,7.942391838723199e-05,0.0055204504487124835,0.08010409359959514,0.008912009783838387
497,7.153120472745157e-05,0.005627653930199002,0.04889922297066951,0.00845761223558107
498,6.600344495334638e-05,0.004143571614961154,0.08042382836869355,0.008124250424091189
499,4.2628144517422835e-05,0.004194491936675289,0.05885089925228559,0.006529023243749594
500,6.008155465349766e-05,0.00479058364669835,0.07990864162448386,0.007751229234998614
501,6.650561023417026e-05,0.005021673139143359,0.0870170646408317,0.008155097193422617
502,6.908146106084049e-05,0.0056545992956465825,0.055539551311865276,0.008311525796196527
503,6.304073355828223e-05,0.005096851056265169,0.07740744288720003,0.007939819491542715
504,5.9539758559238705e-05,0.004973273001920611,0.05580188657019125,0.007716201044506169
505,6.905243717122e-05,0.0035973057874156005,0.09345184262243733,0.00830977961026759
506,4.6402361890882753e-05,0.004763620163009677,0.060464002207472944,0.006811927912924706
507,7.269108124822101e-05,0.005180160078951504,0.07543519081152661,0.00852590647662876
508,5.6146218620894683e-05,0.00428436390927953,0.06058034191610373,0.007493078047164214
509,6.477809601921452e-05,0.004254201472212237,0.06520634647235024,0.008048484082062532
510,4.4678736998468575e-05,0.004229921906126225,0.07021180964003637,0.006684215511072929
511,5.699560853878895e-05,0.004018354671899091,0.06647533689249907,0.007549543598045431
512,7.423641859070124e-05,0.00509186353140055,0.07605064735803553,0.008616055860467736
513,5.807001817213301e-05,0.004885604599130618,0.07328343099144874,0.007620368637548475
514,5.950351214986555e-05,0.004454212593103222,0.06930310627031533,0.007713851965773328
515,6.106684537131496e-05,0.004860401814583974,0.06331438357816754,0.007814527840587329
516,6.150075291531731e-05,0.004935773506195499,0.065906218249284,0.00784224157465942
517,6.199052952714321e-05,0.004035833878852726,0.08229525126809811,0.007873406475417276
518,4.68038120452787e-05,0.004433687313064009,0.05252142349920508,0.00684133116032824
519,6.625555816244745e-05,0.004645829109598572,0.07802462786392039,0.008139751726093786
520,4.110651886571617e-05,0.003324445367849458,0.09582581777942423,0.006411436568017792
521,5.727310442461728e-05,0.004878928658545529,0.05952606076926381,0.007567899604554548
522,6.500654653903198e-05,0.005027777392588854,0.08194247634803009,0.008062663737192078
523,6.599518365936527e-05,0.004885836532138541,0.07360703776804578,0.008123741973952941
524,8.270317894790964e-05,0.004300843340725904,0.08760559664865131,0.009094128817424387
525,6.234059685285868e-05,0.004933937312866021,0.05852591677160435,0.007895606173870282
526,6.272978274833897e-05,0.0051715817558777855,0.07289004534733401,0.007920213554465465
527,5.677509218376173e-05,0.004427682736387663,0.07183715922928613,0.007534924829337132
528,6.97779386848348e-05,0.0055952114006582706,0.0689430340588344,0.008353319022091379
529,4.689772011094208e-05,0.004016530466519162,0.08360181180016735,0.006848191010109326
530,5.4575340663631275e-05,0.004835550803894955,0.06956349434105347,0.007387512481453477
531,4.403384804150162e-05,0.0038492224244278256,0.07119856797016544,0.006635800482345825
532,4.6565153817744734e-05,0.004666398293147243,0.06805751032607965,0.0068238664859260134
533,4.1770357727093487e-05,0.004271502703047999,0.08648545174153233,0.0064629991278889595
534,5.427711838110419e-05,0.004507468878401138,0.0704262821973467,0.007367300616990179
535,6.116272142653562e-05,0.004014190421133572,0.06616567731287182,0.00782065990991395
536,6.662615451499917e-05,0.0046499824093413755,0.06167016643736645,0.008162484579770974
537,5.9066486748278104e-05,0.00400863155053218,0.07000087957103629,0.007685472447955145
538,4.3501476494594455e-05,0.0038852428191432716,0.06445187169832423,0.006595564910952967
539,7.801698450918654e-05,0.004872349727131304,0.08071011347877621,0.00883272237247302
540,7.12453196399004e-05,0.0050943546928595195,0.0816421171847238,0.008440694262908709
541,7.066830233115497e-05,0.005624942563548091,0.066711805570832,0.008406444095523064
542,5.22047101486656e-05,0.004536253835120207,0.06831191236195622,0.007225282703719292
543,8.490233191913799e-05,0.00495519412164309,0.0829117424256518,0.009214246139491674
544,4.486212781006809e-05,0.004105974806761601,0.0627703362035974,0.006697919662855604
545,7.264671447146862e-05,0.005707313166178553,0.05597415788278606,0.008523304199162928
546,6.230200572320265e-05,0.004898343241108599,0.06849723119021123,0.007893161959772662
547,5.4231251148559675e-05,0.0048361414660749915,0.08020554845800021,0.007364187066374615
548,7.265767744288931e-05,0.004803689305295617,0.08600144018758815,0.008523947292357515
549,5.605753010248738e-05,0.004470375718706212,0.08805116452031303,0.00748715767848437
550,6.755236738578563e-05,0.005197083093599546,0.05137478047539101,0.00821902472230043
551,4.2627150270111984e-05,0.0037864189216941786,0.07108577757243784,0.006528947102719658
552,4.334610507225199e-05,0.0042158058769905735,0.06936891635683207,0.0065837758977847554
553,3.873640298066835e-05,0.0037578987522811757,0.07420100733782498,0.0062238575642978855
554,5.536896687683791e-05,0.0037240455925345757,0.07805813836533204,0.007441032648553396
555,6.078058584706879e-05,0.004655186342834478,0.07540530638989784,0.007796190470163511
556,5.682504839232362e-05,0.005076926007499427,0.07769705362604373,0.007538239077684069
557,7.315650119350556e-05,0.005090916072420548,0.08569428328175688,0.008553157381546593
558,5.6433295979839006e-05,0.004999863497369703,0.04103431831019044,0.0075122097933856165
559,6.048414753037963e-05,0.0047685055409091605,0.06676109907764616,0.007777155490947762
560,7.86430261915842e-05,0.006097095217515383,0.05731033853464407,0.008868090335105059
561,4.204338530815811e-05,0.003754518677045704,0.05201935619978476,0.0064840870836346395
562,8.25418383101054e-05,0.005641926845316256,0.06426576474853829,0.009085253893541156
563,5.318439832134767e-05,0.0046587830443297965,0.069636176434976,0.00729276342145743
564,4.889470207744721e-05,0.0033545474504265544,0.06631138462236152,0.006992474674780525
565,4.9060882820319595e-05,0.004415431816784454,0.060965426702449754,0.007004347422873822
566,3.355900763163079e-05,0.003227030605288265,0.0831249002439467,0.005793013691648789
567,5.143865287744207e-05,0.004607324799545435,0.05288918581732549,0.007172074517002863
568,5.106024337264263e-05,0.00419969881596193,0.07484511655260029,0.007145645063438428
569,7.840305513400411e-05,0.005696415150163155,0.06095445070431449,0.008854549967898067
570,6.575107140543938e-05,0.005002936475165389,0.07668776410237266,0.008108703435533866
571,7.215577552286566e-05,0.004958190558545634,0.07978416392435994,0.008494455575424763
572,7.720353942344351e-05,0.005341478249157883,0.08120173539294484,0.00878655446824542
573,7.082827965681934e-05,0.0055715658868653725,0.060979673663096534,0.008415953876823425
574,5.7324914102070054e-05,0.004877750176490978,0.05735556899457872,0.007571321820004056
575,5.114585181710027e-05,0.003620074016450944,0.06458014959635971,0.007151632807764901
576,5.096064422844423e-05,0.004069832194663059,0.07569006745327522,0.007138672441598929
577,5.4300888992745804e-05,0.004815120771368495,0.07521817751502002,0.007368913691497899
578,7.250561154994768e-05,0.004959847427605988,0.09079393514915424,0.00851502269814631
579,5.37802602304041e-05,0.004512140711721315,0.07698051916285564,0.0073335025895136735
580,5.0116057158823924e-05,0.004177917516428387,0.06614501869053568,0.007079269535681177
581,6.166117223885219e-05,0.004888528145896195,0.0860915615111062,0.007852462813592403
582,6.806781678672769e-05,0.005128508700503197,0.07725530258888735,0.008250322223206043
583,4.876739744780636e-05,0.0030731665270096287,0.09280002104906715,0.006983365767866208
584,6.044451957860053e-05,0.004926653482627444,0.07436928191199232,0.00777460735848441
585,6.429075196031923e-05,0.005291446617505617,0.06370760575548995,0.008018151405425005
586,6.300420981362838e-05,0.005398838027926008,0.0599343098081786,0.007937519122095255
587,4.9406282728381554e-05,0.004401998655019935,0.07147915288241052,0.007028960287864866
588,6.176587968449294e-05,0.005300686123727808,0.06476226584998646,0.007859127157928717
589,4.202961033547434e-05,0.0036185492199507802,0.08445687833862259,0.006483024782882895
590,5.909889478830577e-05,0.004720540563431344,0.08070226950811277,0.007687580554914911
591,6.157346146025837e-05,0.004326622291253542,0.08823614049975215,0.007846875904476735
592,5.862438909336637e-05,0.004970816203378928,0.06865662812161899,0.0076566565218354555
593,6.840716718534419e-05,0.0043455016243469724,0.0992018269495567,0.008270862541799578
594,6.18604330688781e-05,0.004135477762887277,0.08248969088624936,0.00786514037184829
595,6.780369767995798e-05,0.003349730465098555,0.08797764782210749,0.008234300072256149
596,5.941362042271428e-05,0.00444610202266446,0.06990400556274956,0.007708023120276279
597,4.6255677621015096e-05,0.004292568663592627,0.0724082603160495,0.00680115266855662
598,5.815903728999223e-05,0.0040383289964079,0.07408436085831438,0.007626207267704675
599,4.515611445060645e-05,0.0036259868265567283,0.07275379797466819,0.006719829942089768
600,4.577428809708515e-05,0.004316905032444193,0.07201298037595194,0.0067656698188047
601,6.000848377770871e-05,0.004385838448714514,0.07923541731096835,0.007746514298554409
602,5.981719500660713e-05,0.004735506780219546,0.08108642323706317,0.0077341576791921385
603,4.4713290610888514e-05,0.0039850995975189325,0.06855447081849064,0.006686799728636139
604,4.9500088344360395e-05,0.004216922297259306,0.06875549523408608,0.007035629918092625
605,5.447269742418654e-05,0.0037714884038230374,0.07644476765880326,0.007380562134701252
606,4.514620893906008e-05,0.004077795112448791,0.08200366916817625,0.006719092865786256
607,5.435924910857725e-05,0.003977057635271659,0.06233050434136089,0.007372872514059687
608,8.374222589739436e-05,0.004939131631915086,0.07918720627126685,0.00915107785440566
609,4.596763516883112e-05,0.004482999606193039,0.0602213209458311,0.006779943596286835
610,6.783508884392087e-05,0.004663792808024393,0.06149328883871963,0.00823620597386445
611,4.2584193908732276e-05,0.004491620491221013,0.050462096693395964,0.006525656588323654
612,5.0807652367231073e-05,0.004232291730689877,0.07176257528099539,0.007127948678773629
613,3.514661384998581e-05,0.0038842356503868804,0.0624850938098076,0.0059284579656083925
614,7.36871755935741e-05,0.0059646249532917354,0.06760732576482598,0.008584123460993184
615,6.823309932152912e-05,0.005124906190909926,0.06920791989544739,0.008260332882004747
616,8.424490744917975e-05,0.004281216190788183,0.0818044630869057,0.009178502462230913
617,6.264210422846008e-05,0.005331358457369366,0.047779633920078224,0.007914676508137255
618,4.9872789328542265e-05,0.003169259119227316,0.07340175378534575,0.007062066930335791
619,7.198695646908816e-05,0.005334811572730468,0.0775838339567585,0.00848451274199574
620,3.9164246652712706e-05,0.003549660875498275,0.07981855674281046,0.006258134438689567
621,6.666287899298551e-05,0.004380680013872774,0.06594426444779522,0.008164733859286859
622,4.261333180260967e-05,0.003722633081407405,0.057322038693092825,0.0065278887706982985
623,5.1186332102505646e-05,0.004462098867001886,0.07975593720889407,0.007154462390879197
624,4.785879724323917e-05,0.004189063481184329,0.08109728607435907,0.006918005293669462
625,7.074592202204593e-05,0.004546996398519355,0.06701861771217432,0.008411059506509597
626,7.792504346340866e-05,0.0053760258206475555,0.05662624121770454,0.008827516268090816
627,4.8029519801431096e-05,0.004225946900319229,0.07122611102694876,0.0069303333109909365
628,6.016387461709722e-05,0.005207113910678971,0.07113814827305598,0.0077565375404942405
629,6.716792327905186e-05,0.0050438701135363685,0.07180090186455201,0.00819560389959467
630,6.086031831595273e-05,0.004714570606296506,0.0775925788137719,0.007801302347425848
631,8.819724092417445e-05,0.004705447591834564,0.08274800723454856,0.00939133861194312
632,6.215059154163644e-05,0.00487207150510161,0.06486122563640973,0.007883564646886323
633,6.364694316802947e-05,0.004792153575749857,0.075436862212791,0.007977903431856604
634,6.127226974647099e-05,0.004966135595584979,0.06913684180208479,0.007827660553860957
635,3.6537688212484295e-05,0.003433308254428214,0.08367218957025102,0.006044641280711697
636,5.142741333421729e-05,0.003531602768816114,0.06845602997905095,0.00717129091128065
637,7.07832767408552e-05,0.004751013323462874,0.07486794729046187,0.008413279785009801
638,6.578250860841867e-05,0.004699824729883674,0.07177867040598551,0.008110641689066183
639,6.234349736820483e-05,0.005116038766010594,0.08213841274612665,0.007895789850813177
640,4.9922057901265346e-05,0.00399725810753532,0.06869586497295366,0.007065554323707715
641,7.567891736914346e-05,0.004626405147935755,0.07077403127727155,0.008699363043875271
642,4.197422827764016e-05,0.003796153697180818,0.07663873886992034,0.006478752061750776
643,7.493160980975008e-05,0.0056840419298679785,0.06915338120950776,0.008656304627827564
644,6.268122879494621e-05,0.004300331524783023,0.07420385448135836,0.007917147768921946
645,5.218958991109922e-05,0.004529430652417222,0.07704345148881608,0.00722423628566359
646,5.0783956675295404e-05,0.003716269253273505,0.0884843135593858,0.007126286317240905
647,6.3477929468612e-05,0.004690402245181438,0.07478048166075824,0.007967303776599183
648,4.1633705263799434e-05,0.0025476154310762043,0.08433350611173362,0.006452418559253494
649,5.7467593026691424e-05,0.004054222844023906,0.07090168551483389,0.007580738290344233
650,5.2412697582868896e-05,0.0041243901182617185,0.07550212527585387,0.007239661427364435
651,5.9430903931883736e-05,0.004368520847104805,0.07683925160328742,0.007709144176358563
652,5.3526729472588605e-05,0.003942114596302575,0.08954940554137414,0.007316196380127328
653,4.8665362877268594e-05,0.0041121955262846096,0.07122692731520441,0.006976056398658762
654,4.381062642927893e-05,0.004174156845721981,0.06064078610149792,0.006618959618344765
655,5.932236993194479e-05,0.004843692540599843,0.08042738299881425,0.007702101656817093
656,7.709357363904846e-05,0.005499566004709383,0.07132814040477015,0.008780294621426305
657,5.321376653974063e-05,0.0033178774327339965,0.07253671975597475,0.007294776661402339
658,6.538561835507298e-05,0.00499458275758578,0.08475392827758288,0.008086137418760077
659,4.7269298506577716e-05,0.003222082247942088,0.07926116943101658,0.0068752671589239105
660,6.175676162340726e-05,0.003973706551769651,0.07788447687101208,0.007858547042768617
661,7.200057459458258e-05,0.005391068989090416,0.07583010440093685,0.008485315232481461
662,6.599608448075022e-05,0.004720882075938805,0.060602905426806686,0.008123797417510485
663,5.076132228388717e-05,0.003874452840526814,0.08209862800980616,0.007124698048611365
664,4.318551764581695e-05,0.003801068792644234,0.07181885251037912,0.006571568887702276
665,4.727747926214811e-05,0.003758498944980126,0.07686275593110765,0.006875862074107332
666,5.8183724821628785e-05,0.00345900947095095,0.09343615300358721,0.007627825694234774
667,6.27084439067291e-05,0.004792556750951322,0.0796725254737165,0.007918866327115812
668,5.1396305454595734e-05,0.004890351104607522,0.058818633797026454,0.007169121665489808
669,3.252557056528593e-05,0.0027441860923885886,0.08129747437283852,0.0057031193714743075
670,7.932995036073996e-05,0.004894826977860387,0.07431183834215904,0.008906736235049229
671,4.0909815040281086e-05,0.0040742168284145395,0.06271714404428241,0.006396078098356887
672,5.903328842597543e-05,0.005073317768546451,0.04909035985450916,0.007683312334271919
673,6.034315005101819e-05,0.003941315033612711,0.08368732614572583,0.007768085352969397
674,7.685488963116997e-05,0.0052204726788494535,0.07622292249714646,0.008766692057507762
675,7.468932712068701e-05,0.0054923648562836885,0.06891196266550548,0.008642298717394942
676,4.926726271410654e-05,0.003739446216612663,0.07830834097186479,0.007019064233507637
677,6.329845737079308e-05,0.004699369858301138,0.07527412028393288,0.007956032765819432
678,5.6383941935797066e-05,0.003843656312155264,0.08657122548371343,0.007508924153019276
679,4.9990564934797856e-05,0.004499936408759739,0.05383998873406792,0.007070400620530441
680,4.182429477784244e-05,0.0036368810901189898,0.055142027483357836,0.006467170538793757
681,4.558926113678867e-05,0.004109742366114873,0.06375258540125728,0.0067519820154372445
682,4.438921919911072e-05,0.004082744058335228,0.06808499919732203,0.006662523485820531
683,6.931961309618668e-05,0.005113092288242194,0.0814575443486305,0.008325840083510259
684,5.918356912575355e-05,0.005174293898324644,0.06765704819837648,0.007693085799973464
685,5.708808180144298e-05,0.0047390608678901155,0.06879658828180713,0.007555665543249131
686,8.318588229656728e-05,0.005252414636340842,0.08842932870038922,0.009120629490148512
687,5.7597574971675697e-05,0.0044187064444613225,0.07708084306179153,0.0075893066199538275
688,5.386687346065171e-05,0.003956410688923128,0.08013422104099582,0.007339405525017076
689,4.675911872147518e-05,0.003711831563738469,0.09276584931932508,0.006838063960031007
690,5.266988754918617e-05,0.0049568629210345475,0.07198954703578142,0.007257402259017048
691,6.694929837636325e-05,0.004157186554630028,0.08965196971852274,0.008182255091132459
692,5.7095447357402155e-05,0.00488523994981263,0.0599876838029485,0.007556152946930191
693,5.976322353241859e-05,0.004862386108390791,0.06358013896754477,0.007730667728755247
694,7.25679901853051e-05,0.005299281059665909,0.05749851291559427,0.008518684768513522
695,5.2702295908442834e-05,0.004825792321206348,0.07053773446053402,0.0072596346952475774
696,4.8699253298542916e-05,0.004305403249906381,0.06925961259910096,0.006978485028897213
697,7.474416380434765e-05,0.004311640362490326,0.07945306052266865,0.008645470710397818
698,6.655725211556586e-05,0.0053076450637806125,0.06267791869683226,0.008158262812361778
699,5.738964200251678e-05,0.004881317211247999,0.07179479270121814,0.007575595158303822
700,3.32595313459177e-05,0.0034939260049697855,0.06384700889835226,0.005767107710622149
701,5.6490633372243416e-05,0.004574857319290815,0.07050669637776219,0.007516025104551141
702,6.182105885158198e-05,0.005383270059919362,0.05398550356234644,0.007862636889210977
703,4.80378013527995e-05,0.0046802241432165525,0.06125073919699542,0.006930930771029198
704,5.7332425406285054e-05,0.004335217036528885,0.07283477976578279,0.007571817840273534
705,6.289818662534382e-05,0.004790583054184028,0.07327748792571398,0.007930837700100998
706,5.460733940564066e-05,0.004424433461022504,0.07886184886222303,0.007389677895932974
707,6.272225760277093e-05,0.005048073658289297,0.07959348748304862,0.00791973848070567
708,4.754529768382638e-05,0.004196323285834571,0.08077555629635391,0.0068953098323299294
709,4.6908824346681464e-05,0.003797058557599249,0.07684660591059433,0.006849001704385915
710,6.273752507637659e-05,0.004877029978425341,0.08680600252577442,0.007920702309541481
711,7.47857712414673e-05,0.005387088475728581,0.06189444624178053,0.008647876689769953
712,5.5434502872734615e-05,0.00504425087821876,0.06493309297483574,0.007445435035827941
713,4.951785189712423e-05,0.004050571025248167,0.07947135841534436,0.007036892204455301
714,6.485695008596627e-05,0.004923388526573291,0.06453004336831158,0.008053381282788333
715,3.2253103246299616e-05,0.0031248380317779522,0.07242306601533599,0.005679181564829508
716,6.308054316952586e-05,0.005354766264262575,0.05240018812520464,0.007942326055352129
717,5.6911426513337246e-05,0.004495008398009245,0.07095721680695277,0.007543966232250557
718,6.914193298176272e-05,0.004760240698495116,0.07979060847464403,0.008315162835553036
719,2.8506190262691952e-05,0.002984265142319604,0.09558462800824064,0.005339118865757879
720,3.951512518664043e-05,0.003959283292088737,0.059203386615541476,0.006286105725060642
721,5.388920354368062e-05,0.004243657317753722,0.0703465735993285,0.007340926613424221
722,6.862501257635124e-05,0.00543888092974952,0.07214423514056056,0.008284021521963288
723,5.782635488557696e-05,0.0037156257803943123,0.0806610934951375,0.007604364199956258
724,6.575452160662067e-05,0.004260117268199541,0.08779939748927923,0.008108916179528544
725,5.829789953894678e-05,0.0044774923349313695,0.07389132489085876,0.0076353061195309204
726,5.517484367358241e-05,0.0032201329636637145,0.08708905097836572,0.007427977091616678
727,6.066903647885103e-05,0.004899151953369408,0.06868995250361287,0.0077890330901114035
728,5.6399889065177374e-05,0.003998209010311398,0.07418545083983297,0.007509985956390127
729,4.6293327466653077e-05,0.004579610710744838,0.06628533641326584,0.006803920007367275
730,5.006457144392863e-05,0.0034258663069793205,0.07199783108936852,0.007075632229273097
731,6.762714688847653e-05,0.005267574551055821,0.07265138113858294,0.00822357263532559
732,5.429510929085004e-05,0.00455705640111496,0.07006215871046084,0.007368521513224326
733,7.042477795287126e-05,0.004257855458114738,0.08189423172759303,0.008391947208656094
734,7.540621744152985e-05,0.004750042364302495,0.07565044017435057,0.008683675341785237
735,4.925005574776538e-05,0.003694402660344999,0.07027341614694205,0.007017838395671793
736,5.031562645633215e-05,0.004449764067948163,0.05994060282914404,0.0070933508623451085
737,5.7415066437769374e-05,0.004635052024194986,0.06403777161158297,0.007577273021197594
738,6.415895350579155e-05,0.004778771889108602,0.07961207935206449,0.008009928433250258
739,4.923151916767919e-05,0.004693581573482228,0.0673042637345791,0.007016517595479851
740,6.63859625103097e-05,0.0036665165245165885,0.08683749457151535,0.008147758127872303
741,4.4213890954364523e-05,0.0039010073866294816,0.08695753543031337,0.006649352671829355
742,4.8652778171765565e-05,0.004443235377946593,0.06542949630236539,0.0069751543475227214
743,5.2805599100649265e-05,0.004135367685313211,0.07866193180662484,0.007266746115053731
744,7.420898010858151e-05,0.004803372265201815,0.06980648692546176,0.008614463425459618
745,5.6739069209492866e-05,0.004832966833369629,0.06640259282787042,0.00753253404967363
746,5.515332141324228e-05,0.004371912942442556,0.07062512606981941,0.00742652822072616
747,5.733146400075859e-05,0.0051704499141519665,0.04832195736361622,0.0075717543542271675
748,5.9467840197843325e-05,0.00484116950214536,0.05845827961569139,0.0077115394181604645
749,7.55658658843398e-05,0.005449264294638963,0.08731481130841656,0.008692862927962175
750,6.927249018316184e-05,0.004012069923707742,0.09039590604758896,0.00832300968299094
751,5.197889188000903e-05,0.004625977931600605,0.06831738120378628,0.007209638817583619
752,6.893436976962684e-05,0.005622809549754089,0.05108328645667326,0.008302672447448856
753,4.289792944105998e-05,0.003811164428472831,0.06954986399957708,0.006549651093078142
754,4.8310294083449904e-05,0.0036280268505420794,0.07700924028528688,0.006950560702810199
755,3.789982215384284e-05,0.00398728938971635,0.055455724012733576,0.006156283144385299
756,6.445296581896347e-05,0.00517983693322948,0.05760323785524457,0.008028260447878044
757,5.30753361570966e-05,0.004367467945441168,0.058074059401126865,0.0072852821604311455
758,6.557881080227379e-05,0.004604855499626338,0.07683224608824958,0.0080980745120228
759,6.189498163772015e-05,0.005124116885203133,0.0698669453892573,0.007867336375020444
760,6.58121734286343e-05,0.00451993341106873,0.0817026897725428,0.008112470242080005
761,5.1410622656987674e-05,0.004833616816104507,0.04159199814451631,0.007170120128490672
762,4.578424610259639e-05,0.003710984816952881,0.08168039952835882,0.006766405700414063
763,6.442245085189285e-05,0.004889258150460559,0.0829372919586504,0.008026359750963837
764,5.05601193879763e-05,0.004048275525775377,0.05504311836233855,0.007110563928970473
765,6.361083245500743e-05,0.004943243265420047,0.05950814088306666,0.007975639940155694
766,6.234473306223496e-05,0.004166793156837935,0.06937890310605965,0.00789586810061026
767,5.1161816713797164e-05,0.004288208707512632,0.05623886836980141,0.007152748892125089
768,5.72993679087708e-05,0.004614430379815745,0.06131354019736435,0.007569634595459052
769,8.199423459065735e-05,0.005275484269574077,0.08685070399414263,0.009055066791065457
770,7.616021792137424e-05,0.0053164139969751265,0.07135900526379269,0.008726982177211866
771,4.2928264887770694e-05,0.0036876230569336268,0.08283381710404925,0.006551966490128786
772,4.697685265098065e-05,0.005074972762478192,0.05686324686333366,0.006853966198558328
773,5.4954322515036625e-05,0.004801295124038493,0.05767870763405969,0.007413118272025343
774,5.0228459949651067e-05,0.004048099691336862,0.06763808898893675,0.0070872039585192295
775,4.572570313240854e-05,0.004133297298235834,0.04964190532972523,0.006762078314572239
776,5.557711243430823e-05,0.004439814467664454,0.07289422019713765,0.007455005864136389
777,5.957484890479597e-05,0.004039657280120706,0.07981778050959543,0.007718474519281348
778,5.53954108420236e-05,0.004941378634787196,0.06795225490782286,0.007442809338013638
779,5.855442507664433e-05,0.004616617550712854,0.0700733584973281,0.007652086321823869
780,5.61675906263573e-05,0.00458709208570571,0.06296303688133253,0.007494504028043297
781,5.972898814318083e-05,0.004370449954430231,0.06641494939555237,0.007728453153327663
782,7.183786667988794e-05,0.005018106924328832,0.07217213059559668,0.008475722192231605
783,5.574963916611595e-05,0.004529506505480494,0.06302274583246814,0.007466568098270822
784,5.846283264837519e-05,0.005373726042534554,0.05540144030021116,0.00764609917855989
785,5.8430504915780696e-05,0.004517673065510434,0.08146709538059316,0.007643984884586062
786,6.243561613258313e-05,0.003893295304809489,0.06825824074320852,0.007901621107885561
787,8.016775431268905e-05,0.0048625333867071425,0.07914270623622777,0.00895364475019467
788,6.048170428925269e-05,0.004643669966577394,0.07903513618523006,0.007776998411292912
789,7.470007652259429e-05,0.005116650953979212,0.08025684881669415,0.008642920601428307
790,3.077907517929925e-05,0.0036366016629066113,0.06444960448238213,0.005547889254419103
791,5.2931558732810376e-05,0.004615153131673877,0.06853620684846806,0.007275407805258069
792,3.8962336081259784e-05,0.003355525216684171,0.08419619516493437,0.006241981743105266
793,6.502044868557507e-05,0.004981418784034864,0.0660213028377501,0.008063525822217883
794,7.707120185094778e-05,0.005557776957470535,0.08727029721650936,0.008779020551915075
795,5.2716548879195934e-05,0.004897592954094125,0.0632882962896425,0.007260616287836399
796,4.573718434818789e-05,0.003809940888400442,0.07138696096602182,0.0067629272026384895
797,3.4303490019441975e-05,0.0030042988007691466,0.08823551097611393,0.005856918133237112
798,7.001293412643988e-05,0.005389848974360015,0.07150077417750822,0.008367373191536222
799,5.1756360426741076e-05,0.004739021142421916,0.06541914054546716,0.007194189351604574
800,7.165663451483422e-05,0.00541293445302514,0.06808327333613673,0.008465024188673849
801,5.196640499213798e-05,0.004405764799239635,0.07005145269790214,0.007208772779893798
802,6.207224422694329e-05,0.0044378077460303445,0.08001964151808827,0.007878594051411888
803,6.940992185366832e-05,0.0050183735154764805,0.054599114867644793,0.00833126172039192
804,5.094003989467954e-05,0.00448764995429211,0.06181142484443569,0.0071372291468523655
805,5.348304263573093e-05,0.004002420788683602,0.07347691165394465,0.007313210145738354
806,4.2221991115869796e-05,0.004235364389858093,0.0664127364297249,0.006497845113256351
807,4.623814309464985e-05,0.004532170026847312,0.0668983133067087,0.0067998634614710885
808,4.382975656384199e-05,0.0034160971077727333,0.09034657318143324,0.006620404561946484
809,5.330265414173323e-05,0.0046413297703810676,0.0769108875184763,0.007300866670590038
810,6.0823407686421206e-05,0.004655019249783472,0.06771827783468465,0.007798936317628236
811,5.345382371734779e-05,0.00491679407112201,0.07639271791279745,0.007311212192061388
812,7.382880436441206e-05,0.005335319762422289,0.06561450350357845,0.008592368961142868
813,5.462117799348617e-05,0.004260535524217102,0.07636247319540068,0.007390614182426675
814,4.8844678740237864e-05,0.0044490507809980175,0.07511624450951526,0.006988896818542774
815,5.610035179409918e-05,0.004304177480662297,0.07316218814299269,0.007490016808665973
816,7.425116319155306e-05,0.004647176194337299,0.08849401277579272,0.00861691146476233
817,6.409029372104906e-05,0.0052722251639746144,0.049082378229228674,0.008005641368500611
818,5.772509239474776e-05,0.0049881614807073486,0.06394097030946894,0.007597703099934045
819,6.0407995497935956e-05,0.0048608443805138865,0.07727802416420504,0.007772258069437446
820,6.54159536707163e-05,0.004148151894750945,0.07366323290540921,0.008088012961829118
821,6.0995856026739234e-05,0.005184012450533443,0.055953472836349105,0.007809984380697485
822,4.1464190722189515e-05,0.0035397442770575965,0.07369834803138753,0.006439269424568996
823,6.746784090302006e-05,0.0056402486280433895,0.06952078100510217,0.008213880989095155
824,6.242719163805054e-05,0.005136193326867832,0.06934526545382891,0.007901088003436633
825,6.88379768406784e-05,0.004710171452454874,0.06525518053065349,0.008296865482860242
826,5.3404414217522965e-05,0.004667562765690258,0.07659927694270152,0.007307832388439296
827,7.241044528032706e-05,0.005209046557207259,0.06998552412676884,0.008509432723767588
828,7.241302101293221e-05,0.0045430693246023696,0.07688947064356877,0.008509584068151119
829,4.7824494314611374e-05,0.0049280559797290555,0.045920954619858456,0.006915525599302709
830,3.135450046997078e-05,0.0032985642589689083,0.06359612084836819,0.005599508949003524
831,6.913390485099595e-05,0.005462610398971129,0.06839524139303776,0.008314680081097233
832,7.965050809936865e-05,0.003880286730810124,0.09947392710724401,0.008924713334296399
833,4.684724290210884e-05,0.004389568147268426,0.052023086857531764,0.00684450457681989
834,6.608390408660542e-05,0.004868797836748322,0.05939379780945342,0.008129200704042477
835,4.9192528294116345e-05,0.004238855846608713,0.07445545988303648,0.007013738539047214
836,6.296149164776186e-05,0.004839994118592296,0.07389833532849455,0.007934827764215259
837,7.196944252630458e-05,0.005449916254687516,0.062492634422172344,0.008483480566742892
838,6.731271590966748e-05,0.005239916109992005,0.05683552883003706,0.008204432698832217
839,5.584148447199259e-05,0.004252032204863098,0.08196658536251444,0.007472716003702545
840,4.3012521521012594e-05,0.004453833100444787,0.057708168126584525,0.006558393211832611
841,4.462587135757071e-05,0.003509579389175397,0.08006247030129554,0.006680259827100299
842,4.997340284341913e-05,0.004599355944123533,0.08233946427550887,0.007069186858714301
843,6.90431259788299e-05,0.005159043267381702,0.06927478175238644,0.008309219336305254
844,7.173268583634111e-05,0.005339392680823458,0.059129559122805375,0.00846951508861874
845,4.82784355051139e-05,0.0044701815347732675,0.06631295786835834,0.006948268525691377
846,4.005140327619956e-05,0.003706434400562455,0.06217455393958238,0.0063286178014001606
847,6.640854404045896e-05,0.005418710327479837,0.07140092644304197,0.00814914376118487
848,6.574101845133651e-05,0.003955319221611763,0.09253361114936975,0.008108083525182478
849,4.8224608855743056e-05,0.004281946806833931,0.07623544677846894,0.006944394059652923
850,6.214019973555038e-05,0.005554687909548812,0.05416231203590449,0.007882905538920904
851,7.165658610022447e-05,0.005495120330883392,0.0646069045474228,0.008465021328988125
852,5.3952209245813115e-05,0.004933396819273047,0.0668837434717311,0.007345216759620703
853,5.969540540520426e-05,0.0046902991007448614,0.08302415504121918,0.00772628017905148
854,6.187435491964462e-05,0.0051481918977086755,0.07102677787195333,0.007866025357170162
855,5.465684225972766e-05,0.004591249846462233,0.06936923213583743,0.007393026596714455
856,7.61789728950673e-05,0.005508827877037152,0.07035972987565131,0.008728056650541756
857,6.583226502701822e-05,0.005179232804664584,0.07792432386904014,0.008113708463274815
858,7.384106753077501e-05,0.003985832972775935,0.0804545846735163,0.008593082539506667
859,8.377552124006271e-05,0.004835051371327178,0.08420075577789499,0.009152896876948965
860,5.2593527613498785e-05,0.0031855518299378966,0.0890552220488523,0.00725213951972093
861,5.567371699191765e-05,0.005021319503041187,0.06143961996117575,0.007461482224861041
862,8.657032625824962e-05,0.005941886349370255,0.06834014644789477,0.009304317613788166
863,8.419212482961481e-05,0.005268750470682977,0.07468977629990414,0.009175626672310398
864,6.259642076459818e-05,0.004854973177661413,0.07467740867673492,0.007911789984864213
865,6.719783361287141e-05,0.0049870684775121295,0.07875560271398463,0.00819742847561788
866,5.616553843131978e-05,0.003744089044694251,0.09156817296325492,0.0074943671134605925
867,6.616109263962936e-05,0.004969923868209511,0.07812053676813047,0.008133946928744293
868,4.743272986901572e-05,0.003935968210712601,0.07888105647676236,0.00688714235870115
869,3.5973084611725865e-05,0.003979843482477917,0.056091162048618415,0.005997756631585301
870,5.75463272179879e-05,0.004677294848631764,0.06441513036224056,0.0075859295553009085
871,6.722350607584585e-05,0.004240392982263474,0.08495658620184976,0.008198994211233808
872,7.027309776095474e-05,0.005037269839376615,0.08675224423554351,0.00838290509077576
873,4.3620239966927675e-05,0.004052408287986102,0.08212156856087649,0.006604562057163771
874,6.691251489159698e-05,0.00518657735321721,0.06949514771912646,0.0081800070227107
875,6.505698857548023e-05,0.004750060376674533,0.07117039733075803,0.008065791255387152
876,5.71260188356208e-05,0.004315437379087917,0.07367293707826938,0.007558175628789024
877,6.154106386177366e-05,0.003906758008044846,0.07618478180718125,0.007844811269990723
878,5.9840783057203494e-05,0.004734863411881612,0.06975085710477646,0.007735682455814953
879,8.007796608469758e-05,0.004168532399876278,0.07718479253560728,0.00894862928524233
880,4.857172345766202e-05,0.004314196843570546,0.06192047983560112,0.006969341680364215
881,5.739115781140345e-05,0.003911520209059511,0.06533720349265781,0.007575695203174616
882,7.462409664288613e-05,0.005150056680428629,0.08174930561133986,0.008638523985200578
883,5.5078814320339665e-05,0.004883231279406053,0.06952279704171627,0.007421510245249236
884,4.8800453998827865e-05,0.004292410086661446,0.0724389606154423,0.006985732173425166
885,3.84254440578759e-05,0.003448674119798078,0.06708718054618901,0.006198826022552622
886,6.172438462458138e-05,0.004214201272239832,0.0649706564016106,0.00785648678638108
887,5.861144949859759e-05,0.004885987381391046,0.06365980125430126,0.007655811485309486
888,6.084003312310758e-05,0.004345813528007792,0.08242635056050496,0.007800002123275792
889,6.795870136819193e-05,0.005108575830399722,0.07769073253056713,0.008243706773544973
890,3.994740728627546e-05,0.004086856048064721,0.0745634848318879,0.006320396133651386
891,6.481846419553549e-05,0.00477935716873437,0.06435006247762232,0.008050991503879185
892,6.1680443127018e-05,0.004487089174985508,0.07916521075717986,0.007853689777869882
893,4.081027186132929e-05,0.003967677249973443,0.07288165072339758,0.006388291779601889
894,5.712729083376972e-05,0.004866257596199127,0.07776741940236587,0.007558259775488632
895,7.437112505566891e-05,0.005409976504547755,0.060987037086335905,0.008623869494355074
896,6.81885867312585e-05,0.0038402547258032218,0.07886024719912288,0.008257638084298531
897,6.677620483732887e-05,0.0050521245094728206,0.07426255217095434,0.008171670871818595
898,4.8562195427347394e-05,0.0035769167368544107,0.06934995077362816,0.006968658079382807
899,5.263076525122606e-05,0.004621621519792242,0.07306661684255733,0.007254706420746862
900,5.629393407557298e-05,0.0038926355670136485,0.09801970195070889,0.007502928366682744
901,4.0591479587842046e-05,0.003206439388232861,0.06553851778508335,0.0063711442918710885
902,6.564559952300836e-05,0.004853845258667662,0.07694546889404918,0.008102197203413906
903,6.066928020244053e-05,0.004099055668248173,0.07048357773647052,0.007789048735400264
904,6.835491360394302e-05,0.005133730306966171,0.07329732832686231,0.008267703042801076
905,6.166126650586431e-05,0.005036575014192477,0.08176868558449413,0.007852468815975237
906,5.9894157323882714e-05,0.004147098026276322,0.08525713384865785,0.007739131561349908
907,6.139680402188487e-05,0.005132960890801374,0.05942046591540695,0.00783561127302039
908,6.335486678109077e-05,0.00554107273191143,0.06700268246352437,0.007959577047876988
909,7.490215784122507e-05,0.005312367852203126,0.07470165294221731,0.00865460327462931
910,6.961163100213999e-05,0.005589751267974139,0.07385035787704552,0.008343358496561181
911,5.6950884540755707e-05,0.00423101261748523,0.0794816538336347,0.007546580983515339
912,6.176079938249361e-05,0.003776045764073863,0.08147474180762693,0.007858803940962854
913,6.707844305935366e-05,0.004123830524380104,0.07719724572123621,0.008190143042667384
914,3.8962226800382495e-05,0.0026726659018254263,0.08351785054307848,0.006241972989398641
915,3.809923369437697e-05,0.003857068799783272,0.06983344614423714,0.006172457670521268
916,7.526943965303428e-05,0.005238590611528671,0.07636040330124239,0.00867579619706651
917,6.438716128554078e-05,0.005045452361528326,0.07285579178125912,0.008024161095437953
918,7.560276510155294e-05,0.004737398864179526,0.07412991369999888,0.008694985054705515
919,6.554885647551919e-05,0.004333038460762206,0.08606527833427968,0.008096224828617276
920,7.57650857418112e-05,0.005437510523364026,0.07266165768723587,0.00870431420284277
921,5.549875122151019e-05,0.004759957423429853,0.06552497809389868,0.007449748399879676
922,5.2311989893310104e-05,0.0042959467324660905,0.06853047311350119,0.007232702806925625
923,4.731904151315112e-05,0.004311587533807921,0.06154013088354082,0.0068788837403426775
924,4.402130538652738e-05,0.004074005686833506,0.055016048943045126,0.006634855340286406
925,4.97451334158139e-05,0.003695053542918368,0.07198227952674707,0.007053022998389642
926,5.18880347711394e-05,0.0047542054970859645,0.06478349620826673,0.007203334975630325
927,6.023375416753589e-05,0.0047442717978696605,0.07625763993840318,0.007761040791513425
928,5.467461169990574e-05,0.004145022687618353,0.07789203205747419,0.0073942282693939855
929,4.735127453847928e-05,0.00388042828359472,0.07770720877795512,0.006881226237995576
930,6.200860725486172e-05,0.005183759247978477,0.06055398746733065,0.007874554416274061
931,7.230754444437242e-05,0.005247343586926314,0.0695879218601183,0.00850338429358405
932,6.944763138577198e-05,0.005100852250416479,0.08419162407078906,0.008333524547619193
933,6.895518419469952e-05,0.004976745752235663,0.06423768275578373,0.008303925830274447
934,6.229276037273134e-05,0.005068994788444649,0.06651054512867827,0.007892576282351096
935,0.00010285445464028247,0.006731032910337973,0.07077424770419204,0.010141718524997703
936,8.099573007738142e-05,0.005614946619678215,0.0836742038622198,0.008999762778950383
937,4.529772598568804e-05,0.004075507379039606,0.07211964566892437,0.006730358533220007
938,5.225846132812667e-05,0.0033140209203522883,0.08931315653912586,0.007229001406012205
939,7.709977848419527e-05,0.004081156686431646,0.0862839787156382,0.008780647953550746
940,4.685150375375448e-05,0.0038934761890256704,0.0679399112083563,0.006844815830521258
941,7.434606736823124e-05,0.004739102657316942,0.08651788562063834,0.008622416561975578
942,6.523446632972568e-05,0.004656146231950611,0.08791885026080992,0.008076785643418127
943,7.177476891191464e-05,0.0044483197708354285,0.09352215278242504,0.008471999109532207
944,6.362765505101693e-05,0.004474405478563723,0.06856595762338843,0.007976694494025471
945,7.828538821429558e-05,0.0049150839709580585,0.07308154900270303,0.008847903040511624
946,6.791695653370898e-05,0.005454172338573451,0.06678686267439948,0.008241174463249052
947,5.245047245081929e-05,0.004920508978017913,0.06636056316125205,0.007242269841066331
948,6.14954739767989e-05,0.00472351139312979,0.07175216157909647,0.00784190499667003
949,5.3835012835842675e-05,0.004861908113597711,0.08178089329311689,0.007337234685891008
950,4.9918222608644685e-05,0.004052120160625027,0.07962283808306231,0.007379447326581699
951,4.9767150741417564e-05,0.004638268929689609,0.06123771575592496,0.007054583668893377
952,7.050085844956854e-05,0.005099087360740399,0.07464736372243258,0.008396478931645572
953,6.967656447142089e-05,0.00552703097951191,0.061568386577501855,0.008347248916344861
954,7.631980859114966e-05,0.005297865387142056,0.06380267698862996,0.008736120912118195
955,5.4693998692009665e-05,0.004593396566422375,0.07790401615551268,0.007395539107597855
956,6.423072968607571e-05,0.004557162456454074,0.07939561195468992,0.00801440763163911
957,4.6525747327575616e-05,0.004600725965271528,0.06630532407870726,0.0068209784728860585
958,5.676713050926301e-05,0.00399700702683513,0.06953066644894257,0.007534396492703483
959,7.426283592914954e-05,0.005113291835260706,0.07269510729591921,0.008617588753772618
960,3.959209182087823e-05,0.003782302002811427,0.05682567827965812,0.00629222471156887
961,5.079841390309084e-05,0.004661812562668472,0.07373214055331911,0.007127300604232322
962,3.8657550106916135e-05,0.0035654355918148094,0.05943813992014735,0.006217519610497097
963,6.005389214622557e-05,0.004677466807821293,0.06857290210762412,0.007749444634696428
964,8.005091133567074e-05,0.004748572345374527,0.08603003240335294,0.008947117487530272
965,5.9635394255364135e-05,0.004871196154774147,0.06857309833157643,0.007722395629295599
966,5.1187660597059506e-05,0.004612640245136879,0.06399914800888507,0.007154555234049089
967,6.123402405237617e-05,0.0035360103410056135,0.07771937622363811,0.007825217188830991
968,6.111983659185937e-05,0.0054322075041711975,0.06462714181473528,0.00781791766341006
969,5.929113362284824e-05,0.0044872956479229675,0.08585123841744258,0.00770007361152138
970,5.1106542977478675e-05,0.004565097630952653,0.05709747104223295,0.007148884037210161
971,5.849081769575143e-05,0.004327097638642191,0.08871506542079843,0.007647928980825554
972,5.756462672662926e-05,0.004812522162844633,0.07048361604548603,0.00758713560750228
973,4.935666633852957e-05,0.0038602364226037102,0.07986164061592627,0.007025429975348787
974,5.164879365200483e-05,0.004345062956216069,0.052960638659723225,0.007186709514931307
975,5.616532284150661e-05,0.004305447450984745,0.06020875388972702,0.007494352729989846
976,4.954791463700318e-05,0.004380142264105476,0.056112189532683626,0.007039027961089714
977,6.189295662290663e-05,0.004049863969193424,0.0816596603743086,0.007867207676355447
978,5.629106144025713e-05,0.004802515139087878,0.057989462172916895,0.0075027369299647375
979,7.031291470043437e-05,0.004790320238465736,0.0694682552214747,0.008385279643544023
980,5.7977918365072334e-05,0.004864008899996527,0.061366964662507684,0.007614323237496016
981,5.492906281173832e-05,0.004890891268728526,0.0706905646851208,0.007411414359738468
982,6.988992042184412e-05,0.0049547953577591276,0.08324338065608972,0.00836001916396389
983,7.763548073912068e-05,0.005635193701565773,0.06012437278954286,0.008811099859785971
984,5.953296908472162e-05,0.004846713824372219,0.0838821194137056,0.00771576108266197
985,9.209794124112769e-05,0.004433603971605079,0.09297087409946947,0.009596767228662347
986,4.409383042497375e-05,0.003648373045694253,0.08019220561223372,0.006640318548456351
987,6.689035722702622e-05,0.004485069754739235,0.08938464663295154,0.008178652531256332
988,5.870644360202494e-05,0.004552389258645019,0.07564345911916881,0.007662013025440796
989,6.8359829818587e-05,0.004677282768339607,0.06606256360843199,0.00826800035187388
990,4.5776438122923476e-05,0.004695565244765769,0.09907846699700162,0.006765828709250853
991,7.330354441697023e-05,0.004367517952046696,0.08341783303131756,0.008561748911114468
992,8.003768607599249e-05,0.005124383792718493,0.0744537249332291,0.008946378377644875
993,7.52396918375399e-05,0.005243172953412105,0.0820384279031594,0.008674081613493114
994,6.165197697470941e-05,0.004211645506083316,0.07790704190593467,0.007851877289840261
995,4.870314584465101e-05,0.004230103195593971,0.07848869933601388,0.006978763919538372
996,6.249791703504498e-05,0.005306860558015114,0.057133737204294155,0.00790556241105239
997,5.460990077475776e-05,0.004078550956757526,0.08823469115381699,0.007389851201124229
998,5.692709625446886e-05,0.0054386187919273086,0.0578163346430971,0.007545004721964635
999,5.206850620882835e-05,0.0039656188978466666,0.09757844747536826,0.007215851038431162
1000,6.573491340330342e-05,0.004667611063066698,0.062261210747441176,0.00810770703733816
1001,5.4890044466915127e-05,0.004682704393587122,0.07183900574143287,0.007408781577757223
1002,6.427240864376403e-05,0.0045870822411538436,0.06283639372493388,0.008017007461875277
1003,7.235857203671628e-05,0.00524361606536036,0.07768827971775094,0.008506384192870422
1004,4.835217230627014e-05,0.004342644470269032,0.06803154554431501,0.00695357262896345
1005,8.156225483423572e-05,0.004614468597058908,0.09549220958671434,0.009031182360811619
1006,6.157311631438786e-05,0.004917402408878613,0.07104446795066277,0.00784685391188005
1007,5.2373518928178174e-05,0.0038359486002565446,0.087555075875238,0.00723695508678739
1008,5.994697877172503e-05,0.0038594938227636197,0.07448184351343379,0.007742543430406113
1009,6.358678484493127e-05,0.005176064672419365,0.069198078329757,0.007974132231467635
1010,6.41533299138957e-05,0.005187756394563949,0.07559134399910672,0.00800957738672242
1011,6.766944313269793e-05,0.005369017588891534,0.08223531963191094,0.008226143879892763
1012,4.0010011233310456e-05,0.0037460329713990886,0.06822011225386504,0.0063253467283074915
1013,7.447082591181905e-05,0.005370249014928818,0.07105226320001934,0.008629648075780294
1014,8.025141238994544e-05,0.005442838751313857,0.07447692736906797,0.00895831526515699
1015,5.617829406959314e-05,0.004554156294853537,0.0750482360711282,0.007495218080189063
1016,4.898871415715433e-05,0.003907112614251854,0.07309480840927263,0.006999193821945069
1017,6.140846168342956e-05,0.005069253022825618,0.09080241461529537,0.00783635512744472
1018,7.271694744622728e-05,0.005359020682875062,0.07089570671156586,0.008527423259474483
1019,7.58256199548668e-05,0.004932515277438877,0.06605828491930232,0.008707790762005353
1020,4.556559103820332e-05,0.004512167817626798,0.0797518493258158,0.006750228961909596
1021,5.799577828614464e-05,0.004180289302509196,0.06586953774152282,0.007615495931726568
1022,8.245984657160411e-05,0.00547657603808428,0.08058130317284196,0.009080740419789755
1023,4.547006725020008e-05,0.0042098984236469215,0.09065478351627299,0.00674314965355211
1024,6.501349177000964e-05,0.004952538618356721,0.07202575004672696,0.008063094428940354
1025,3.7109715466393264e-05,0.0036827781395616004,0.06556382204054234,0.006091774410333413
1026,6.061418671039735e-05,0.004412189867996924,0.07642913636153059,0.0077855113326227195
1027,5.8559452963632876e-05,0.0053257199319168514,0.0665063494380117,0.007652414845238888
1028,5.775697656986828e-05,0.004410781078553195,0.09475893783674016,0.007599801087519863
1029,6.294229774816157e-05,0.004376347854651242,0.0726497333112639,0.007933618200301848
1030,7.335945996722671e-05,0.005735708586658093,0.061320548604842706,0.008565013716698053
1031,4.596252031855756e-05,0.003993415318714048,0.0850277365606864,0.006779566381307674
1032,6.0708879238583675e-05,0.003154970625060135,0.07257472763172523,0.0077915902894456325
1033,7.124428221894446e-05,0.005022732822478241,0.07651849664402377,0.008440632809152639
1034,5.4537617677700915e-05,0.004976064581090579,0.07090530042231258,0.007384958881246411
1035,5.6750326898023086e-05,0.004142475317334932,0.07242789381800147,0.007533281283612236
1036,6.699671291765252e-05,0.00494315382972257,0.06563817605293187,0.008185151978897638
1037,6.65362966388268e-05,0.004762103551658942,0.08108372985870305,0.008156978401272521
1038,6.522994331645767e-05,0.0046733177339157985,0.08326094588750532,0.008076505637740714
1039,4.894168687970823e-05,0.004343318562451834,0.05867847846190832,0.006995833537163948
1040,7.516031043236447e-05,0.005046705492349523,0.0771834314768225,0.008669504624392555
1041,7.80019266058785e-05,0.005018976510311513,0.06820356842599651,0.008831869938233806
1042,4.612961655699082e-05,0.004273299457975412,0.07298609903690956,0.006791878720721564
1043,6.411333355051398e-05,0.004425015930529974,0.08555015500293539,0.008007080213817868
1044,4.4526378610699616e-05,0.0038204751945190014,0.0764471615144453,0.006672808899608843
1045,7.775032106226807e-05,0.0053726015931288935,0.06693398511411885,0.008817614250026355
1046,4.884757903591977e-05,0.004304363461305983,0.06744800644986171,0.0069891043085591135
1047,6.789270509954794e-05,0.004693894202683312,0.07674108483782335,0.008239702973988024
1048,7.253767163171471e-05,0.005215897608663375,0.08193178797421075,0.008516905050058624
1049,6.513121423458507e-05,0.005237006829098303,0.06203293476701788,0.00807039120703479
1050,6.176056650080763e-05,0.0043935239312414736,0.07625103544116518,0.007858789124337618
1051,5.989085147194791e-05,0.00439907787184094,0.0641120526396044,0.0077389179781121335
1052,4.2301271063588764e-05,0.004198860542546845,0.046550931870411816,0.006503942732188553
1053,3.530322462021075e-05,0.003524152310547623,0.07439940097753173,0.0059416516744260845
1054,5.217935869637405e-05,0.004423096396711073,0.07748412258017634,0.007223528133562828
1055,6.542148118031584e-05,0.004285143518834809,0.07771927236842391,0.008088354664597439
1056,5.0105882530239354e-05,0.0046256597608268874,0.08064814949556043,0.007078550877844941
1057,3.9321348444602746e-05,0.0032798310188656824,0.08083522750612104,0.006270673683473119
1058,5.270103037749028e-05,0.004614644535490524,0.07311072140542496,0.007259547532559441
1059,5.3973601316925485e-05,0.004377128760985323,0.07636840335946049,0.007346672805898268
1060,7.100953273079559e-05,0.004941401022188495,0.08493132198930109,0.008426715417693601
1061,9.079577506932231e-05,0.005726145189954967,0.07965992607764516,0.009528681706790372
1062,4.4107374320331895e-05,0.0040925018948370475,0.06475150536123309,0.006641338292869258
1063,8.102324124384379e-05,0.005255759705999504,0.08317873577391355,0.009001291087607562
1064,6.146979470810879e-05,0.004890572773197215,0.061842119621176805,0.007840267515085701
1065,6.724785612583323e-05,0.004983425679864693,0.0712896281420976,0.008200479018071617
1066,5.611771845333114e-05,0.004978954806197439,0.054762493165786186,0.007491176039403314
1067,7.379439468365642e-05,0.005701437710007856,0.066996341178156,0.008590366388208115
1068,5.18630056340747e-05,0.0046622193250648305,0.0751253899973614,0.0072015974362688966
1069,5.9636986161151224e-05,0.004274337954913964,0.08489450880782634,0.0077224986993298175
1070,5.1445144099210794e-05,0.004156936863947045,0.06367825712638808,0.007172527037189208
1071,5.1638498395137426e-05,0.0048317313756072915,0.06985681513394404,0.007185993208675973
1072,6.962778253032778e-05,0.004823991897754962,0.09294366552028954,0.008344326367678076
1073,6.611314483660423e-05,0.0045067966092126955,0.07839949301356608,0.008130999006063374
1074,7.818955677299954e-05,0.005397378008066276,0.06813013810841717,0.008842485893288109
1075,6.505038235138804e-05,0.004182516665411617,0.08122188985536205,0.00806538172384838
1076,6.811174022025659e-05,0.004124775345267629,0.08232792281101131,0.008252983716223865
1077,4.709431620503632e-05,0.004411262487848865,0.07135063977886968,0.006862529869154388
1078,7.404010241677712e-05,0.005139282909505859,0.07003751076745246,0.008604655856963515
1079,7.386651995856252e-05,0.005712851988680621,0.0749143276389358,0.008594563395458896
1080,5.519532495938257e-05,0.0043140090893304265,0.05908431236095124,0.007429355622083409
1081,7.295087721666325e-05,0.005050279971788031,0.07645743367100621,0.008541128568091139
1082,6.776357502123315e-05,0.004775940560956032,0.07166161514091796,0.008231863399087259
1083,4.986451517094962e-05,0.004437660113707147,0.06842517661794378,0.007061481089045603
1084,6.996900114341146e-05,0.0037110758606747085,0.09124151338241138,0.008364747524188094
1085,6.156277697054929e-05,0.004280203399670646,0.08924337825906958,0.007846195063248749
1086,6.012235397673539e-05,0.003914880624783665,0.0866345413284968,0.007753860585330064
1087,8.171679559866724e-05,0.0056785325655919925,0.07598709299515605,0.009039734265932044
1088,4.684100296405378e-05,0.004160689080931014,0.0720799474191045,0.006844048726013972
1089,5.013661226550963e-05,0.00423433538536422,0.06842886666601,0.007080721168462257
1090,4.704892330538425e-05,0.003867947893469856,0.0760595809845368,0.006859221771118348
1091,7.2498373693647e-05,0.00562103920090356,0.05860352941563174,0.00851459768243024
1092,3.825556662797155e-05,0.0038736559980981212,0.05155845583849672,0.006185108457252085
1093,6.657649741112404e-05,0.004617174139976548,0.07289669942181964,0.008159442224265281
1094,5.776559450192572e-05,0.0034325848084309817,0.08381432151527868,0.007600368050425286
1095,5.7470718408652436e-05,0.004382475472477528,0.06657279095901902,0.00758094442722356
1096,3.3401788557944624e-05,0.0026138677716303804,0.0711804963571101,0.005779428047648348
1097,7.705356498250068e-05,0.004290221808621291,0.08445343494766772,0.008778016004912497
1098,5.674007288338697e-05,0.005237833826665179,0.05952678426307356,0.007532600671971552
1099,7.280523843247539e-05,0.005196478040842286,0.06373197293207644,0.008532598574436447
1100,6.187456214913749e-05,0.004176069177902039,0.0786127259672228,0.007866038529599051
1101,5.1963275975817174e-05,0.004839239851914541,0.06984885721006151,0.007208555748263075
1102,5.696715481389177e-05,0.004713975569130109,0.08268153461140049,0.00754765889623341
1103,7.594546433876403e-05,0.004719666728052709,0.09972905976974822,0.008714669491080174
1104,6.1023957678608184e-05,0.004355671394227569,0.06937246997749602,0.00781178325855292
1105,5.9961100767714794e-05,0.00452206424730118,0.08929700471322599,0.007743455350663194
1106,6.709796972779347e-05,0.004703384910728253,0.0633870745433538,0.008191335039405539
1107,6.18249903576758e-05,0.003719230557352709,0.08663254747729987,0.0078628868971692
1108,5.447208155841002e-05,0.003864983722925324,0.0675346646196759,0.007380520412437679
1109,5.1064041675772755e-05,0.004320072530352428,0.07846821293865025,0.00714591083597971
1110,5.2750465555831457e-05,0.004359164650199881,0.0740729029834512,0.007262951573281414
1111,5.783754718086379e-05,0.004575689526938657,0.07688631029784454,0.007605100076978826
1112,4.888642778342711e-05,0.0037654696842433716,0.07954062252245775,0.006991882992687052
1113,6.005302758092198e-05,0.00537841836993879,0.06169247738523209,0.007749388852091572
1114,7.711193675360095e-05,0.005940291636271121,0.06689508986202823,0.008781340259527612
1115,7.540869652797768e-05,0.004966120021662466,0.08527869268809596,0.008683818084689265
1116,6.002084707699885e-05,0.004916071887905852,0.0712718550010969,0.007747312248580046
1117,7.058520412151897e-05,0.004455725395570271,0.08150821555167287,0.00840150011138003
1118,5.429920453373955e-05,0.004820395590261278,0.052467165181706577,0.007368799395677636
1119,5.806195378558621e-05,0.0048014953863078575,0.08234585157786078,0.007619839485552545
1120,6.201909542601829e-05,0.003937281353884341,0.07716225041192892,0.007875220341426521
1121,8.292494480700205e-05,0.0056622059106710915,0.05290465234072039,0.009106313458639615
1122,4.2216231904081235e-05,0.0039033970916380507,0.0583707036897021,0.006497401934933761
1123,6.081243454990754e-05,0.0052785958738196075,0.06643836712838791,0.00779823278377267
1124,4.731533118219367e-05,0.004120985252107256,0.07091032530731356,0.006878614045154252
1125,6.342145325358315e-05,0.005275108426524334,0.06618227605820337,0.007963758739036656
1126,7.649288527863788e-05,0.004909424654688603,0.06884129481652757,0.008746021111261817
1127,7.253816460008965e-05,0.0036900566387615148,0.07182309627613837,0.008516933990591303
1128,3.448539207038739e-05,0.003398137044691353,0.0724818193239054,0.005872426421027937
1129,7.269001944467377e-05,0.0048873108704261,0.08419666785162105,0.00852584420715468
1130,4.860990080603285e-05,0.0042119853999824115,0.07112768880854414,0.006972080091768342
1131,6.879976302859754e-05,0.004962434448932032,0.07383243771209991,0.008294562256599015
1132,6.28337102802666e-05,0.004879966269801287,0.081062240327342,0.007926771743923627
1133,5.050229117141062e-05,0.004656881034304983,0.05409983244897676,0.0071064964062053934
1134,6.473114033099258e-05,0.00514559907552329,0.07006068551735023,0.00804556650155801
1135,6.958086190948472e-05,0.005619486543660042,0.07472949210912949,0.008341514365478498
1136,6.46873250170589e-05,0.005321917872404254,0.06092825831196702,0.008042843092903056
1137,4.306618977565026e-05,0.003894369339467043,0.05933491351166964,0.00656248350669547
1138,5.440963360647362e-05,0.0047755553809829265,0.05609354146048284,0.0073762886065061985
1139,5.535159095249298e-05,0.004523238172660006,0.06913641091891876,0.0074398649821413145
1140,6.234117221335372e-05,0.004767725416151941,0.06346652577667575,0.007895642609272112
1141,4.057740527660294e-05,0.0039562946836282226,0.06647728786556728,0.006370039660520391
1142,5.721694288112687e-05,0.004324172852535573,0.07772295919624739,0.007564188183878453
1143,6.331758622774596e-05,0.004027747951728337,0.07707942176897342,0.007957234835528298
1144,5.9644494721169054e-05,0.0052094058826141505,0.04939353942365887,0.007722984832379808
1145,6.804308747916334e-05,0.005060598623745478,0.06920022165477624,0.008248823399683311
1146,8.43223614685695e-05,0.003911300753410199,0.09632593621761298,0.00918272080968214
1147,7.4343417576428e-05,0.005333193423509112,0.08027400595495848,0.00862226290346262
1148,5.860100362120493e-05,0.004911222772304867,0.05819035108201609,0.007655129236087666
1149,5.840556335237437e-05,0.0048379578698822005,0.05943625921123086,0.007642353260113926
1150,5.113424450144787e-05,0.004670096603407223,0.07791003381296324,0.007150821246643453
1151,5.10098390913246e-05,0.004402420820827433,0.08641541758125282,0.007142117269502393
1152,6.096831265118249e-05,0.004113723288483838,0.0835855407647037,0.007808220837756969
1153,5.0491914034345284e-05,0.004692502441422026,0.0690268782811092,0.007105766252442106
1154,5.3047440981776596e-05,0.005132332896098707,0.06685119609041479,0.007283367420484575
1155,6.177884883135232e-05,0.004660683325962596,0.0734108265976916,0.007859952215589593
1156,6.328271662691674e-05,0.004913473250370609,0.07967398374022183,0.00795504347108904
1157,5.844522671052805e-05,0.00475096018215803,0.07312471805997856,0.0076449477899150735
1158,7.66019370096273e-05,0.004635132745988237,0.0745152892747849,0.008752253253284334
1159,5.483990932778311e-05,0.005138921199671842,0.05529104804062124,0.007405397310596028
1160,7.086541244141653e-05,0.005055126736108901,0.0693224865273554,0.008418159682580017
1161,7.17784788264004e-05,0.004032835379074413,0.09971323621084416,0.008472218058241877
1162,4.5955925399400985e-05,0.00448935678731363,0.06341170584926037,0.006779079981782223
1163,6.769275148622054e-05,0.005001418052620892,0.08361858658910393,0.008227560482076035
1164,6.088469243574129e-05,0.005266204156266029,0.06745604718636278,0.007802864373788675
1165,6.201594431427995e-05,0.00524474840824401,0.0699804992381381,0.007875020273896393
1166,5.9828638847096016e-05,0.0046439311229669765,0.06724823776449718,0.007734897468428101
1167,9.138148415765422e-05,0.005011867542213864,0.07356779428843296,0.009559366305234565
1168,6.196663966420163e-05,0.004147236898762257,0.07843239828364168,0.007871889205533904
1169,7.588018521218328e-05,0.0053189558833794765,0.08012804490523129,0.008710923327189991
1170,6.441877431799486e-05,0.0048799868965805826,0.08353856739317678,0.008026130718970036
1171,8.322577053468715e-05,0.0050618296275020324,0.08596565375614684,0.009122815932303258
1172,7.158302959006886e-05,0.003782612996319754,0.07200507641196818,0.00846067548072068
1173,6.290542937202136e-05,0.005378868222244687,0.060886901963152606,0.007931294306229021
1174,4.9144008698959815e-05,0.003874614315172769,0.08785590404670174,0.007010278788961199
1175,4.1215809758548156e-05,0.003016027859141002,0.08156209609894916,0.006419954030874981
1176,6.215072358857714e-05,0.004811282642620064,0.07892877746590132,0.007883573021706369
1177,6.650035389271963e-05,0.005384863418386599,0.062151614814723644,0.008154774913675989
1178,5.638813476318182e-05,0.004443355501585393,0.0703628630473423,0.0075092033374507365
1179,6.361730741043406e-05,0.004641660529249956,0.07503699001859854,0.007976045850572419
1180,6.560063842978518e-05,0.005334014312524524,0.07001519472284246,0.008099422104680376
1181,5.6891260649241124e-05,0.004616312403959002,0.06971832812498338,0.007542629558001668
1182,8.135795861343809e-05,0.005472243981640757,0.08052847817579531,0.009019864667135377
1183,5.5775228521073274e-05,0.004544557630048267,0.06773135803432148,0.00746828149717678
1184,7.294107653610595e-05,0.00563858046544565,0.05764723983519404,0.008540554814302503
1185,5.9874526463173853e-05,0.004631711306959452,0.07202954213183066,0.007737863171649746
1186,5.902985608192714e-05,0.004714279912361847,0.07753958902770908,0.007683088967461362
1187,6.549948795768887e-05,0.004561523741556566,0.07875038001073298,0.008093175393977818
1188,6.592864350912076e-05,0.005145900511896382,0.07328505431554522,0.00811964552853881
1189,6.005180518422397e-05,0.0049104364718568164,0.06599644923291348,0.007749309981167565
1190,6.69661726264789e-05,0.004866240834291754,0.07003636796207413,0.008183286175276899
1191,5.735328892186587e-05,0.00468086665463767,0.06680487019974413,0.007573195423456691
1192,5.9302202517140836e-05,0.004027506697254269,0.08118273201076809,0.007700792330477457
1193,6.375842712594607e-05,0.004891683642875529,0.0776986570421947,0.00798488742099385
1194,6.911578574426344e-05,0.004944961987417958,0.0762240224124846,0.008313590424375164
1195,5.16864670143357e-05,0.004548124800542988,0.07330711419641922,0.007189330081053123
1196,4.416018886606339e-05,0.00409155983765888,0.058438246243853964,0.006645313300820581
1197,6.5406232140739e-05,0.004647187931896008,0.08503360145958594,0.008087411955671517
1198,4.501633107788977e-05,0.0037280971938020457,0.06237890411167779,0.0067094210687576716
1199,5.333288032590239e-05,0.004689816869134091,0.06193538946862853,0.007302936418037756
1200,6.0131690100528315e-05,0.004559723515891293,0.07903810054985672,0.007754462592631947
1201,8.989097563673206e-05,0.006390301819008581,0.06872021409949358,0.00948108515080057
1202,6.458991055299111e-05,0.0050438758052938895,0.0646537805918157,0.008036784839286795
1203,7.704942039726702e-05,0.003605736542600614,0.0953333575021211,0.008777779924175956
1204,5.39689335945557e-05,0.004757363912183222,0.060703495291079435,0.007346355123090309
1205,5.888701991985532e-05,0.004909933850145227,0.06315709285118398,0.007673787846940711
1206,7.12348470467132e-05,0.004796071122038089,0.08638426966875468,0.0084400738768516
1207,6.29784812391707e-05,0.004903569854977102,0.07918864702589357,0.007935898262904462
1208,4.719964999260332e-05,0.004389243093141433,0.05991279332627775,0.006870200142106698
1209,7.788972995812822e-05,0.005377532730241545,0.0658672612759239,0.00882551584657394
1210,6.482738550362908e-05,0.005062712123402722,0.062364946466852755,0.008051545535090052
1211,3.492377271785104e-05,0.0033003497474031244,0.05901634483833984,0.0059096338903396215
1212,5.3263084531709535e-05,0.004753778406941926,0.07454265735837409,0.007298156241935997
1213,5.5129771685894635e-05,0.0048437560654193326,0.057699021578246246,0.007424942537548308
1214,6.927101080559314e-05,0.004265832711715812,0.08807902893183805,0.008322920809763403
1215,5.5877632763282554e-05,0.004748014737412234,0.07112238013334893,0.0074751342973408885
1216,4.424884534234496e-05,0.0037254373492071296,0.06664521137261303,0.006651980557874806
1217,4.917971189944355e-05,0.0038321449450154244,0.07507209966208206,0.0070128248159670534
1218,6.478434824189487e-05,0.004907337515967491,0.057367389272974134,0.008048872482645894
1219,7.526899196271032e-05,0.004657371435968585,0.08374838595437062,0.008675770395919293
1220,6.010966201288137e-05,0.005194861732704974,0.06677839258027962,0.007753042113446883
1221,4.765460933661323e-05,0.0039419718202495955,0.07533405404894555,0.00690323180377228
1222,4.971349133412148e-05,0.004129756712743098,0.08423031298070782,0.007050779484150766
1223,6.63475080115295e-05,0.004545325670676651,0.08561226813782419,0.008145397965202738
1224,5.874380344113243e-05,0.003967196069437022,0.08672492621900929,0.0076644506287882035
1225,5.170893776467462e-05,0.004529081626939963,0.08173917263221364,0.007190892695950499
1226,5.5719138026471335e-05,0.005027991544743624,0.07698356415707419,0.007464525304831577
1227,8.079278489479714e-05,0.0042308771707196356,0.09341996897131644,0.00898848067777845
1228,4.140066541730537e-05,0.0038611982608661895,0.08416059390620045,0.006434334885386762
1229,5.202522178510703e-05,0.004567233014897225,0.06919921146283592,0.007212851155063897
1230,8.322217307647081e-05,0.005311724567518989,0.08178663750636384,0.009122618761982206
1231,5.981133200147724e-05,0.005097480134125907,0.05397099177252829,0.0077337786366999525
1232,4.726374404567354e-05,0.004169598521827364,0.057450853106210786,0.006874863201960674
1233,6.947151728257277e-05,0.005177287642838517,0.07241872644603253,0.008334957545337114
1234,5.235607174920161e-05,0.004959134981220732,0.06014573991750716,0.007235749563742584
1235,5.988703311355417e-05,0.005192873509499329,0.06907125586404383,0.00773867127571352
1236,6.339179494319699e-05,0.004849006156351496,0.079863548714182,0.00796189644137602
1237,4.485475000224442e-05,0.004527052727103478,0.059740909827074695,0.006697368886528802
1238,4.368406678437692e-05,0.004394580195994434,0.05445718685273704,0.006609392315816679
1239,5.726836041650452e-05,0.004988422743166826,0.06720151800637275,0.0075675861684227795
1240,6.445028097900387e-05,0.004933981449417625,0.07067392745952755,0.008028093234324312
1241,7.604986588685461e-05,0.0052290096238280055,0.08128794933887384,0.008720657422858318
1242,3.0329951950554148e-05,0.003441276797859442,0.074311141098101,0.005507263562837172
1243,6.200740095914636e-05,0.005053426002906925,0.06629331057953802,0.00787447782136352
1244,8.365948932879723e-05,0.005492880236481879,0.08279992562155991,0.009146556145828705
1245,7.02315946388681e-05,0.005276256694267877,0.0779359050316194,0.008380429263400989
1246,4.143356127382874e-05,0.0033101868043810064,0.07268129600131301,0.0064368906526232434
1247,5.300563125453194e-05,0.003980604558097493,0.06107666770076925,0.0072804966351569435
1248,5.514511489316624e-05,0.0049183359524432564,0.05927804735164388,0.007425975686276237
1249,7.944716056268583e-05,0.005002391895191261,0.06375249312051112,0.008913313669039425
1250,4.716898900057474e-05,0.004566037412297316,0.051829366408181254,0.006867968331360786
1251,4.7328083232094676e-05,0.004052099728810143,0.06871204330965797,0.006879540917248333
1252,6.526695960845494e-05,0.005388091996274408,0.07900850914250568,0.00807879691590612
1253,5.283981222875249e-05,0.005018249645603929,0.06742961881745524,0.007269099822450641
1254,6.707200007651014e-05,0.005384909469300654,0.06558038571257852,0.008189749695595699
1255,4.028505651601682e-05,0.0037486080641903102,0.07015591781340813,0.006347051009407147
1256,6.284709649051269e-05,0.005014655319294833,0.07181298111511847,0.007927616066038527
1257,4.0257055106546494e-05,0.004040363420548645,0.061026146075324306,0.006344844766150402
1258,4.791998375565347e-05,0.003998254563796702,0.07045016603658416,0.006922426146637704
1259,6.691649308084969e-05,0.005450216083427967,0.06671938111607689,0.008180250184490043
1260,7.561016051327135e-05,0.004935088148037009,0.08245322051255677,0.008695410313106043
1261,4.6949776549743366e-05,0.004375666018587108,0.07383865283359281,0.006851990699770618
1262,4.208790988667932e-05,0.003953808078883836,0.06787154251499228,0.006487519548076862
1263,4.547703052127213e-05,0.004503600011251151,0.07628145709709067,0.0067436659556410015
1264,6.18860299885265e-05,0.005122207465793808,0.062145818199736524,0.007866767442128057
1265,5.088031373872088e-05,0.0039026418769449946,0.08141841539966821,0.007133043792009165
1266,5.671648988308305e-05,0.004205352676372873,0.06898647326443896,0.00753103511365353
1267,4.6758669712821294e-05,0.004567386776656053,0.056101514999086444,0.006838031128389295
1268,6.110835660955953e-05,0.0052559780701289605,0.0514106688708571,0.007817183419209202
1269,7.001015386965205e-05,0.0053537987322644295,0.06774307852748551,0.008367207053112256
1270,3.8818057255414494e-05,0.003719999450663278,0.06895704211752562,0.006230413891180461
1271,4.737249375528241e-05,0.004617130912027836,0.06708186180377673,0.0068827678847453696
1272,5.90534546111903e-05,0.0047784485148702205,0.058655951032010156,0.007684624558896137
1273,4.955167975851418e-05,0.004319159541567605,0.07460737357929315,0.007039295402134642
1274,6.0334596499508094e-05,0.0039792478377768635,0.07824801090914457,0.007767534776201996
1275,4.5296874116486484e-05,0.004300144121897142,0.05795809865889234,0.006730295247348831
1276,6.593897271005748e-05,0.003878312633683809,0.09399985487894646,0.008120281565934587
1277,6.027176326174722e-05,0.004719568946985649,0.07423818151621386,0.0077634891164828045
1278,7.309146237387874e-05,0.005342312807692672,0.05076019791644071,0.008549354500421552
1279,7.252900710055363e-05,0.005913782639304445,0.05751052306613458,0.008516396368215445
1280,4.7119121927612714e-05,0.0047626101425333085,0.06690635238880582,0.006864336961980561
1281,7.57054198036048e-05,0.004406310708243307,0.09906373714454725,0.00870088615047938
1282,8.687403378866134e-05,0.006332951122345581,0.06757550688777858,0.009320624109396354
1283,5.5092472072044365e-05,0.005137552596561488,0.06224030033385297,0.007422430334603632
1284,4.400181964195416e-05,0.004610109345383079,0.06477415559367472,0.006633386739965778
1285,4.55607853804906e-05,0.0037433365631253865,0.07671042865706434,0.00674987298995248
1286,5.970674299328911e-05,0.004390234433232928,0.09156052089260042,0.0077270138471008535
1287,5.456474716346451e-05,0.004605558722055825,0.05105264510636265,0.0073867954597013185
1288,5.592820174873047e-05,0.0052861623969010325,0.07076839800226464,0.007478516012467294
1289,5.085194399881536e-05,0.004154709788318731,0.06791540814118813,0.007131054900841449
1290,7.745676448236567e-05,0.004107214477749362,0.08800711898229308,0.008800952475861075
1291,5.943027630613242e-05,0.005205239728247017,0.0719613959693719,0.007709103469673476
1292,4.7906277067569203e-05,0.004306962820000418,0.05789888486485251,0.006921436055297261
1293,4.970340623036428e-05,0.004775134353623944,0.04166540411214026,0.007050064271364048
1294,5.08900415222187e-05,0.0046005671617447,0.06821386020676412,0.007133725641081114
1295,5.852737395154081e-05,0.005544983438108095,0.04838090940499229,0.0076503185522918205
1296,5.775631163873212e-05,0.004576489954915322,0.05780247597780086,0.007599757340779466
1297,4.0692738825330555e-05,0.00421805433982534,0.060633835428420824,0.006379086049374961
1298,5.686271983876846e-05,0.004834693338825565,0.062101546408253494,0.007540737353784981
1299,5.223351785363396e-05,0.004582330780697825,0.06067541428650802,0.007227275963572537
1300,6.157865625773892e-05,0.005206672306634408,0.07655208429647375,0.007847206908049412
1301,5.471432562782074e-05,0.004748326162295204,0.06968702786282854,0.007396913249986098
1302,6.047378837780766e-05,0.005338324585519076,0.05693307581758278,0.00777648946362091
1303,7.305638336288896e-05,0.005572786373835408,0.06535411825284831,0.008547302695171649
1304,3.964875593581547e-05,0.003996672604810546,0.06154648765259685,0.006296725810753958
1305,5.012325051546399e-05,0.004171957618045313,0.08440784619759611,0.007079777575281833
1306,5.302993264979328e-05,0.0043850186761246355,0.05939760230262059,0.007282165381930904
1307,4.0132402508177025e-05,0.0040056741686777305,0.06126653238519508,0.0063350140101010475
1308,5.8842262063456436e-05,0.004296342235324856,0.08575851794261258,0.0076708710107429336
1309,4.7827593996121503e-05,0.00488612332705956,0.04675785767863205,0.006915749706005936
1310,7.243219132164296e-05,0.004860400552752617,0.07964052864555615,0.008510710388777333
1311,7.347127975486843e-05,0.004612384048570456,0.08252917259817028,0.00857153893737102
1312,6.703531245432791e-05,0.004904672108215936,0.06585175259780307,0.00818750953919002
1313,4.6945177234539116e-05,0.00476416632522457,0.05546121115406866,0.006851655072647687
1314,4.1782546052179826e-05,0.0038379852153716566,0.07968672901082474,0.006463941990161997
1315,6.18530537128983e-05,0.005397655576387404,0.06188186656097394,0.007864671239975496
1316,5.4987724654565053e-05,0.00467005013866268,0.07919956175468723,0.007415370837292257
1317,5.875747097353963e-05,0.005116798084632219,0.06782699971077655,0.007665342195462578
1318,5.252152209847882e-05,0.004829892753496237,0.05068979201979751,0.007247173386809388
1319,4.2054781283494545e-05,0.004105716839915047,0.05685385160215595,0.006484965788922424
1320,6.146972483698602e-05,0.004743598043738118,0.06723990123890244,0.007840263059169987
1321,6.445179429530059e-05,0.004672480407153669,0.05399105383709357,0.008028187485061612
1322,6.403678037095339e-05,0.0049795362456139716,0.07529516345350673,0.008002298443007054
1323,5.529648065788391e-05,0.004796209188013896,0.05970346351648548,0.007436160343744835
1324,5.7750112998507985e-05,0.0036088378957646245,0.08979656155707794,0.007599349511537648
1325,4.2452264262801325e-05,0.004137732734067239,0.07949202032809044,0.006515540212660884
1326,5.2974296378288134e-05,0.004101703433610067,0.07334453059751755,0.007278344343206604
1327,5.94991892366703e-05,0.004608587322262995,0.07642311215591757,0.007713571756110795
1328,4.71766628060265e-05,0.004317317943691234,0.059528549394560315,0.006868526974979862
1329,6.715889439323972e-05,0.004820237735222145,0.08361077277389017,0.008195053043955193
1330,4.955975121746678e-05,0.003662388670433752,0.06317929490926345,0.007039868693197789
1331,7.356766191160727e-05,0.00541060390078993,0.08221556246031891,0.008577159314808529
1332,6.0294007737669117e-05,0.005339582322162853,0.06512229304924932,0.007764921618256616
1333,5.994519021314741e-05,0.004036956808082031,0.0801615255151682,0.007742427927539711
1334,6.765677070238878e-05,0.005102889585939876,0.07060172576196211,0.008225373590444921
1335,7.163265122970935e-05,0.004682491239185887,0.08966019847561335,0.00846360745957117
1336,4.541028948914883e-05,0.004836699910386362,0.053025770497939995,0.006738715715115799
1337,7.059392298268526e-05,0.004871578809477301,0.07597662403178918,0.00840201898252349
1338,4.2815641649031335e-05,0.004284611619999395,0.07348428321963762,0.006543366232225645
1339,6.45105624593355e-05,0.005374350897182092,0.07930220064636861,0.00803184676518016
1340,6.142255054905519e-05,0.005500330919403137,0.07997783321943963,0.007837254018408166
1341,5.1739398674775004e-05,0.005022871678080571,0.060066817703204656,0.007193010404189231
1342,5.0843001827865754e-05,0.0043652346051897975,0.06717815118571302,0.0071304278853281736
1343,7.123983415758059e-05,0.005234710929121006,0.07580782355745175,0.008440369314051368
1344,5.9198137764518704e-05,0.00518235356231166,0.06584645969129577,0.007694032607450946
1345,7.961491990939124e-05,0.005365998539661055,0.07938280112734564,0.008922719311364131
1346,5.333009018312332e-05,0.00393352602100125,0.0744415644669183,0.007302745386710579
1347,5.979665914914395e-05,0.004790713289671122,0.06759687147158017,0.007732829957340551
1348,7.389417830394798e-05,0.00455683911404697,0.0883916784696589,0.008596172305389591
1349,6.197568229860504e-05,0.004519936667111281,0.077369515001668,0.007872463546984803
1350,6.91232378761642e-05,0.005103927915603026,0.07473664310269523,0.008314038602037157
1351,6.748851297740501e-05,0.004863664266021218,0.06992961576265921,0.008215139254900332
1352,6.876972999333682e-05,0.00544510674590851,0.07246343060476956,0.00829275165390455
1353,5.194091936283753e-05,0.004782415953013764,0.06618743115374981,0.0072070048815605185
1354,5.4431988983915474e-05,0.004225168441402294,0.06311741660178827,0.007377803804921563
1355,4.931698153036258e-05,0.004988120581926042,0.032362154831441,0.007022605038756087
1356,4.91329665255343e-05,0.004029431645739101,0.08725833179986786,0.00700949117451005
1357,6.455917238500619e-05,0.005102211503023161,0.06498588709320807,0.008034872269364718
1358,6.180644182998725e-05,0.004704172946624171,0.06430278881393514,0.007861707310119514
