sample_index,mse,mae,max_absolute_error,relative_error
0,6.995380428426092e-05,0.004497078378376069,0.06157924028988537,0.008363839087659485
1,7.723270543819337e-05,0.005794710598242316,0.06886652300160856,0.008788214007305074
2,5.6083743885326206e-05,0.004664731918118652,0.08354613658615184,0.007488908056941677
3,7.157517043392346e-05,0.004735209388041321,0.06714796976819115,0.008460211015921695
4,7.831485687545617e-05,0.00432670679738262,0.08237309641571322,0.008849568174518792
5,6.160162039816206e-05,0.005121304505062469,0.06365761227935085,0.007848669976382063
6,5.807935463894626e-05,0.00512975029999138,0.06545172930283627,0.0076209812123469705
7,4.246972931036644e-05,0.004011045572583621,0.06787778787131482,0.00651688033574087
8,7.3616397385256186e-06,0.0017603847558199926,0.03090137969429593,0.003837092581245732
9,7.22886811171803e-05,0.005907138587435871,0.06272322169037586,0.008502275055370757
10,5.0608524489252614e-05,0.004366989187975647,0.056395235973436986,0.007113966860286335
11,6.701713579036354e-05,0.004222180681148245,0.0950717756347017,0.008186399439946876
12,4.333284356615773e-05,0.004602706913776261,0.04482570622549176,0.006582768685451247
13,5.383501664017524e-05,0.005210540945172782,0.04793590762878286,0.00733723494513942
14,4.071394605320881e-05,0.0028470084742153907,0.06051915673929442,0.007367853242585532
15,6.571771615416836e-05,0.00485683045188786,0.0697591965638682,0.008106646418474656
16,7.651962149390336e-05,0.006085413813966001,0.04866659240894311,0.008747549456499384
17,6.4801886929811e-05,0.005675371373184555,0.053467973928241985,0.008049961921016195
18,5.5422565667336376e-05,0.00435873372811176,0.06838842487713459,0.007444633346736153
19,6.592428065189113e-05,0.005587081764260751,0.05026743527603081,0.00811937686352167
20,4.287785922117503e-05,0.004251739241096171,0.06024560640605525,0.006548118754358006
21,6.502722498338918e-05,0.004518398600829293,0.06200382738914062,0.008063945993332829
22,5.97730589375713e-05,0.0050318389177229335,0.05561224393341857,0.007731303831668436
23,6.04356243716412e-05,0.004948851121554342,0.06690220351928389,0.007774035269513544
24,6.110443838124674e-05,0.0046892372829872575,0.07273699998416172,0.007816932798818621
25,4.387756122993097e-05,0.004738489231920117,0.036487919166994454,0.006624013981713101
26,4.5828490922123024e-05,0.004082959644020633,0.051263249767950825,0.006769674358647018
27,6.706006737381764e-05,0.005211748696298402,0.06067800968100112,0.008189021148697614
28,4.888816943486311e-05,0.004403412586214978,0.0718350866511207,0.006992007539674329
29,7.705926603016844e-05,0.006617899081772998,0.0535950932580711,0.008778340733314472
30,5.8457918636573284e-05,0.005448795377378673,0.06192176319284126,0.007645777830709753
31,7.114790459696443e-05,0.005593063496213616,0.06474209278428633,0.008434921730340115
32,5.361063086810865e-05,0.004759934597079419,0.05868226563669987,0.007321928084057386
33,6.32667131051634e-05,0.006204388423015691,0.05746136636698118,0.007954037534809772
34,4.778657230868456e-05,0.004201793287735552,0.05748621919232377,0.0069127832534142414
35,6.0159036734113795e-05,0.005521625308579729,0.06898515964306284,0.007756225675811223
36,5.7186644373713795e-05,0.004513073198092441,0.06683906557871921,0.007562185158650471
37,5.821097124925442e-05,0.004588297248520993,0.06676428315959315,0.00762961147433169
38,7.44211166129033e-05,0.005501349828429,0.07908641300240049,0.008626767448639305
39,6.216939591674742e-05,0.005505637463802793,0.057427155250727946,0.007884757188192093
40,6.929180561105855e-05,0.00566592591511786,0.06828607002519327,0.008324169965291313
41,4.4784155460503435e-05,0.004237067029437834,0.06414350333301577,0.006692096492169184
42,4.919892376211222e-05,0.004462444137905464,0.056645507126646066,0.00701419444855303
43,6.133423529564425e-05,0.004886990252497119,0.05704829353348373,0.00783161766786682
44,6.521633418940567e-05,0.005028471128817123,0.06425531328661993,0.008075663080478575
45,7.373183470971436e-05,0.0054274632747757815,0.05889196021021759,0.008586724329435145
46,5.119825262448474e-05,0.004809075914016062,0.0599315738323547,0.007155295425381435
47,5.1734934678641365e-05,0.00472861118294038,0.05308415468387039,0.007192700096531274
48,6.73560903792204e-05,0.004649765015103668,0.05863385149752354,0.008207075628944783
49,6.276393106944772e-05,0.004577733709558426,0.07707277961876435,0.007922369031384947
50,4.068445417847827e-05,0.004048189356891897,0.06176660609047424,0.006378436656303653
51,6.674256480864353e-05,0.0046144909338307364,0.05607541753100198,0.008169612280190712
52,5.4688386378071894e-05,0.00476422167067341,0.04594107541505643,0.007395159658727564
53,6.419860175811258e-05,0.0050798297507883205,0.06716055585604952,0.008012402995238855
54,3.997070186210883e-05,0.004468813655079591,0.048388554120553984,0.00632223867487684
55,5.09750045559122e-05,0.004448086838915404,0.04926960112908185,0.007139678182937372
56,3.895704547086387e-05,0.003957281034996067,0.06445815131205457,0.006241557936193783
57,6.591999615386204e-05,0.005500438637803436,0.0635167984812739,0.008119113015216733
58,6.213362530046777e-05,0.004367653156144024,0.05664589994132685,0.007882488522063778
59,4.963726352038254e-05,0.005434529606655856,0.04824677121558274,0.0070453717801392335
60,5.4410435148961375e-05,0.004754095951291955,0.06723013342265033,0.007376342938676381
61,5.8116598700559686e-05,0.0052010162562220194,0.04483447856406819,0.007623424342154868
62,4.568005072840536e-05,0.004579320588747808,0.05690475430840669,0.00675870185230899
63,6.791528097404831e-05,0.00549266363368737,0.05261107653684438,0.008241072804802048
64,5.352133271581327e-05,0.0038565298019366707,0.061509184942374784,0.007315827548255428
65,8.538434532441279e-05,0.005821599533195612,0.06451544243234064,0.009240364999523102
66,5.798477159594857e-05,0.004730086261881848,0.06960294897704156,0.007614773246522062
67,5.373235919852398e-05,0.0038671168717971916,0.07169189245857899,0.007330235957902281
68,4.909937369066553e-05,0.0040663537434584935,0.05672119472630088,0.007007094525597953
69,7.251139501483281e-05,0.005114648865243674,0.053018115424383616,0.008515362294983814
70,4.537979941959009e-05,0.0044368922696916635,0.045946936072921885,0.006736453029569008
71,4.0574291444105104e-05,0.0041032642469987,0.040366935076422195,0.006369795243499189
72,4.152709922787473e-05,0.00414867787301164,0.06502198442798957,0.006444152328109133
73,4.8098056651487666e-05,0.003893536058346723,0.06762665778147886,0.00693527624911129
74,6.0246242925062694e-05,0.005595694784548861,0.053746262509682285,0.007761845329885309
75,6.026998747249448e-05,0.004543686865514822,0.06385975003020183,0.007763374747652854
76,5.384946489145371e-05,0.004773321833127787,0.06742102078316448,0.0073382194632930844
77,5.685208281748304e-05,0.004679892385896492,0.0637398126647013,0.0075400320170064565
78,5.0490476619282825e-05,0.004624580312370476,0.05530035823866308,0.007105665107453526
79,6.025395040212893e-05,0.003999220990357473,0.06651231029617799,0.007762341811729788
80,6.107273973015926e-05,0.005156138211067817,0.08431355855096612,0.007814904972561015
81,4.453178752081262e-05,0.00435616000592877,0.05656627443873674,0.0066732141821473304
82,5.516476634031614e-05,0.004831305317641596,0.058014217015202485,0.007427298724322037
83,5.3795710406245876e-05,0.004758967602193824,0.052475878189641556,0.007334555910635997
84,6.0066479113496785e-05,0.0049754335377760655,0.0660289628227515,0.007750256712748062
85,5.55914239276653e-05,0.004594223798020662,0.10533016769671222,0.007455965660306158
86,6.960091031305495e-05,0.004681661325331631,0.07667798338361287,0.008342716003380116
87,4.89404081186083e-05,0.004370477035698538,0.054784119959828015,0.006995742142089583
88,6.57431406132426e-05,0.005287358928736977,0.06244173566237632,0.008108214391174056
89,5.583681162569276e-05,0.004717955700029428,0.05972326159503344,0.007472403336657653
90,7.044101618820771e-05,0.005111450503018677,0.052712673291168244,0.008392914642018414
91,6.744534082293368e-05,0.005287536916681325,0.05917364390989688,0.008212511237309409
92,6.205770504310314e-05,0.004463455435488421,0.058647178706471514,0.00787767129570044
93,5.585321716273973e-05,0.004757817093296503,0.06539237160487454,0.007473500997707784
94,6.796852577926303e-05,0.0053565041598513975,0.05924740015914587,0.008244302625405169
95,5.4268179304672146e-05,0.004887588384037554,0.06355659857756102,0.007366693919572866
96,5.805500539838917e-05,0.0048082756577079245,0.06817918401368428,0.007619383531388138
97,4.990162973923784e-05,0.0048945593226281245,0.05642638095797703,0.007064108559417629
98,5.985291283515845e-05,0.004651278609728864,0.07369357347161033,0.007736466430816949
99,4.424719569378966e-05,0.003681041174457129,0.05463883870276298,0.0066518565599228965
100,5.720651541869373e-05,0.005358595917127453,0.0565346703343268,0.007563498887333367
101,5.087213335633722e-05,0.004492642430244844,0.07054819725244688,0.007132470354395916
102,7.963069227512389e-05,0.005678014712988899,0.063096867049798,0.008923603099372101
103,6.999348066053994e-05,0.0052717841506317595,0.059736029504449416,0.008366210651217149
104,4.806899660648657e-05,0.004848733364238049,0.05129659436912504,0.00693318084334211
105,6.356958741358834e-05,0.004747482670102672,0.06607714666089493,0.007973053832352315
106,5.398813497828048e-05,0.003985211106063935,0.06643482241784149,0.007347661871526224
107,5.0021475013652904e-05,0.004628273898857713,0.05805146156272212,0.007072586161628052
108,5.900998117622948e-05,0.005047073350777393,0.07667524640808532,0.007681795439624075
109,4.820204897945441e-05,0.004331148577371126,0.06654791369917179,0.006942769546762593
110,6.307500310342396e-05,0.005401409271019161,0.05227342493603793,0.007941977279205915
111,5.19109805230953e-05,0.004554631212760169,0.06836773209034108,0.007204927516852257
112,5.345750354198932e-05,0.004354883917881942,0.07049803549365152,0.007311463843991093
113,4.43862640262547e-05,0.004717394006839395,0.05096868858650061,0.0066623017063365065
114,6.94683254818153e-05,0.005119288020644298,0.06269603198870799,0.008334766072411058
115,6.355275302557067e-05,0.00434054184670411,0.07411352115333392,0.00797199805729841
116,6.0223799274714315e-05,0.00452114867457924,0.0705113483840023,0.007760399427523935
117,5.858214261943148e-05,0.005112156402824621,0.05811704864027556,0.007653897217720589
118,5.362174071198686e-05,0.004633347255599064,0.06398682564338398,0.00732268671404057
119,6.362791611732994e-05,0.004728645671880556,0.0657716001172175,0.007976710858325601
120,5.116001484295649e-05,0.004608817337896824,0.07367498061422761,0.0071526229344874475
121,6.603171025847792e-05,0.005154773800666038,0.0682744435396514,0.008125989801770445
122,5.830773723483094e-05,0.00502877084154397,0.058923612136264625,0.007635950316419716
123,6.0722792023372755e-05,0.005352688031673747,0.06417416842521895,0.007792483046075383
124,6.634097935062586e-05,0.0051898132780965125,0.05985352118601028,0.008144997197705181
125,6.539431165929222e-05,0.005070542032159244,0.07378433020703001,0.008086674944579606
126,4.88051962034349e-05,0.004656319526669497,0.052422771315378036,0.00698607158590825
127,6.235607442366077e-05,0.005160548705630134,0.06296842675561204,0.007896586251264544
128,4.74100995031425e-05,0.003919190885557709,0.06462247187546444,0.006885499219602149
129,4.755868655468311e-05,0.004262593223265839,0.06280902818518141,0.0068962806319553555
130,5.556583965926806e-05,0.005022778857812089,0.052372567553200744,0.007454249771725371
131,4.8811291711624736e-05,0.004667274003218685,0.062259952629416526,0.006986507833791103
132,6.159449331255046e-05,0.004818853141715396,0.06961939492188368,0.007848215931824902
133,5.846295954898677e-05,0.005118043315922787,0.05485462986857659,0.0076461074769445005
134,5.488063068427906e-05,0.005203166698715722,0.055950593357096956,0.007408146238046238
135,5.7735634179271856e-05,0.003882607501801783,0.06988696509425682,0.007598396816386419
136,5.80190766488158e-05,0.004999215550448965,0.060750698895149835,0.007617025446249706
137,7.333968852601146e-05,0.004634663110726334,0.07216214554832234,0.00856385944104705
138,3.9937301084174994e-05,0.0040276486317266155,0.06346172465360667,0.006319596591885798
139,5.4731481323329475e-05,0.004451295366017012,0.05863006149480121,0.007398072811437378
140,5.954130317148178e-05,0.005415634294859045,0.0703167965203857,0.007716301132763126
141,5.908660359777184e-05,0.004732909357130658,0.07184657340326428,0.007686781094695694
142,4.517160720183431e-05,0.0036796086592757256,0.06414275872817576,0.0067209826068688715
143,4.8967220016299945e-05,0.004738867942296938,0.04544528834816197,0.006997658180870185
144,5.95980971707896e-05,0.004042672849216386,0.08131342060537605,0.007719980386684223
145,4.111018200791197e-05,0.004763033478630803,0.061513905967300886,0.0064117222341514325
146,4.892205737499218e-05,0.004143025912339474,0.06811616754019989,0.006994430453939154
147,4.898234728912619e-05,0.004439121720775872,0.05179713700973654,0.0069987389784964766
148,5.056835161390833e-05,0.004755031062298271,0.046683421862172114,0.007111142778337938
150,7.559528195895295e-05,0.005110815629316325,0.07881929398835119,0.008694554730344297
151,7.024938677835606e-05,0.005312580639945524,0.0660023471852309,0.008381490725303907
152,4.9640070390126297e-05,0.004012513387931187,0.07246775665702199,0.0070455709768709185
153,8.286223569991803e-05,0.005557680474913035,0.06662453511283672,0.009102869640938342
154,4.65073197663942e-05,0.004411411435982444,0.06168066079238521,0.00681962753868523
155,6.150492025103713e-05,0.005609159187222599,0.05255564517549982,0.00784250726815325
156,5.972491773613013e-05,0.0045643684068272135,0.08056590054715618,0.0077281898097891965
157,2.0353577859213113e-05,0.002497944541591518,0.044976195536006784,0.005209424518340176
158,7.55490458715759e-05,0.005966493035317134,0.04904951765781801,0.008691895413060096
159,5.4138391127160725e-05,0.004560576893033223,0.06520815648065116,0.007357879526545706
160,8.04873059144329e-06,0.0016460157761520324,0.022396582153303212,0.004012164152036457
161,4.17756968160251e-05,0.004080381699343663,0.0654972569766672,0.006463412165104823
162,5.37714582861309e-05,0.004535120359174487,0.06403830034169244,0.007332902446243944
163,5.347646101696132e-05,0.00513134183972462,0.04696662863129897,0.007312760150378299
164,5.460391403562467e-05,0.0048747832270145675,0.05960974467319313,0.007389446125091132
165,5.1666144525149237e-05,0.0038135723427283152,0.07152639152106943,0.0071879165635911945
166,4.843519961430262e-05,0.0044714676699269245,0.10503853482463299,0.006959540186988078
167,4.4340367277677346e-05,0.004744367833966368,0.042815204261418494,0.006658856304026767
168,5.2382706660311885e-05,0.004565370830553078,0.05947520039066179,0.007237589837805908
169,6.46884089153348e-05,0.004928167293580369,0.07338580988171273,0.008042910475402187
170,4.3478085932614234e-05,0.004663392016206502,0.045306474753152415,0.006593791468693398
171,5.295645340079663e-05,0.004374576674636423,0.051946870501656583,0.007277118481981444
172,6.834062520471555e-05,0.004893670905535069,0.05724388182649354,0.008266838888276179
173,6.42568543572167e-05,0.004914377346104302,0.05907270572606249,0.008016037322593752
174,4.8510069365842566e-05,0.00461637708269376,0.051135372736291256,0.0069649170394084515
175,4.3108442251387124e-05,0.00457965547540738,0.04867773923901009,0.006565701961815437
176,5.176200482701572e-05,0.0051168939101440495,0.05718265244801657,0.007194581629741593
177,5.800493613747959e-05,0.0035730635821522344,0.0750057679384879,0.007616097172271329
178,5.494423799162403e-05,0.005061057356696369,0.048498295292129345,0.007412438059884454
179,3.812483000854169e-05,0.00396983817792443,0.053800766819251056,0.006174530752092934
180,4.520321208295973e-05,0.004321155836703884,0.04227073427468264,0.006723333405607609
181,5.472877368114051e-05,0.004749564492619892,0.07429937783676799,0.007397889812719578
182,5.846503351069638e-05,0.004907133858997507,0.05584742305731005,0.007646243097802719
183,8.744778152155246e-05,0.006565883151910204,0.06033447446132856,0.009351351855296208
184,5.039539646134865e-05,0.004398178225945747,0.06010046733406771,0.007098971507292315
185,6.53113841502958e-05,0.00533846374748146,0.060167353323558714,0.008081545901020145
186,7.104280918673075e-05,0.00518822001877176,0.06193056037263389,0.008428689648262653
187,5.161443644204579e-05,0.004425171197515541,0.059325683561886555,0.007184318787612744
188,5.260845214617364e-05,0.005040346484497015,0.052221116046431426,0.007253168421191744
189,5.6901823545734465e-05,0.004631471790132821,0.07847359445084612,0.007543329738632255
190,5.902576534233484e-05,0.004932515669059688,0.051524519999297524,0.007682822745731838
191,5.439258893050405e-05,0.004571250565889101,0.06610134048844607,0.007375133146628846
193,6.58893468586941e-05,0.004516202255138036,0.07048501876034112,0.008117225317723636
194,4.9725632502462687e-05,0.004705691122246587,0.05213779257864193,0.0070516404121638504
195,5.477752372351429e-05,0.0049146518169059135,0.04824980043413807,0.007401183940662047
196,5.618462626544563e-05,0.004730391335218049,0.06643445999487163,0.007495640484004367
197,5.916349893410116e-05,0.004376678246606367,0.07068809934411047,0.007691781258856796
198,5.252642414167957e-05,0.004747648921202106,0.06371605620341425,0.0072475115827212834
199,5.089487468108466e-05,0.004156464904962802,0.07537539228284906,0.007134064387225857
200,7.64599907389491e-05,0.005849366790583744,0.05033451382695664,0.008744140365922103
201,6.287930361206854e-05,0.004472420968005607,0.08447201097576118,0.007929647130362611
202,5.904601563411057e-05,0.004291241259561128,0.07785115631202,0.0076841405267024
203,5.994607617416272e-05,0.00535959207925761,0.049811439098628285,0.007742485142004613
204,5.886192103334917e-05,0.00456376446034875,0.06462668871676414,0.007672152307752261
205,3.402830885473377e-05,0.00335853204130464,0.07437948647144843,0.005833378854037638
206,5.819252503771817e-05,0.004287558769346438,0.08338478717000752,0.007628402522004021
207,5.890804676683191e-05,0.005084052293848,0.05950655090156376,0.007675157768204588
208,3.846935090211628e-05,0.004306195974156919,0.049999909160270306,0.006202366556574672
209,5.821808328152255e-05,0.004046263445552789,0.07020609659771182,0.007630077540990127
210,9.031146522652553e-05,0.005383799562737577,0.07677838685638338,0.009503234461304464
211,4.902308959759432e-05,0.0039603419053473275,0.04845904867807027,0.007001649062727574
212,6.164033563751545e-05,0.005313093807028362,0.05584088115074337,0.007851135945677877
214,5.1476976148606255e-05,0.004409183407061378,0.06258007803930443,0.007174745720135717
215,4.997591125853596e-05,0.004433054609454554,0.06435142188259446,0.007069364275416542
216,5.691168943390655e-05,0.004669575427655661,0.07126811376475087,0.007543983658114986
217,4.734213917474694e-05,0.0045299582014935655,0.05901766527551455,0.006880562417037319
218,4.968954747599601e-05,0.003889797519928245,0.06848896745205946,0.007049081321420242
219,4.9603888013581857e-05,0.004667384899713156,0.04938621678383326,0.007043002769670151
220,7.22402159101858e-05,0.005122285027096333,0.07034855838571108,0.008499424445818957
221,5.753870063160081e-05,0.004417970363588921,0.06152001618862657,0.0075854268588920176
222,5.555132857161446e-05,0.004624175255742006,0.05778024278499866,0.007453276364902483
223,4.380366011069256e-05,0.004312703140170715,0.06754994649359691,0.0066184333577284215
224,5.343317289741803e-05,0.004820523274971162,0.06440058548210015,0.007309799785043195
225,7.14635612213776e-05,0.004652160893134876,0.07443284270605277,0.008453612317901555
226,6.779096274369457e-05,0.005661631876884854,0.06716676746433037,0.008233526750044242
227,6.409615507475416e-05,0.00509471244536266,0.05940821871408053,0.008006007436591203
228,6.191547715099682e-05,0.004219825603352615,0.07385287027575899,0.007868638837244736
229,5.597105970320732e-05,0.0045449850430575095,0.06982093686345614,0.007481380868743862
230,5.4607577348143734e-05,0.004484401315986912,0.06258051074782345,0.007389693995568643
231,5.513865901701324e-05,0.004868040548907459,0.07539542909226205,0.00742554099153811
232,5.302550790093365e-05,0.004032381697958121,0.07267539066400776,0.007281861568372
233,5.75758128814837e-05,0.004783176199339948,0.06314163932761718,0.007587872750743985
234,4.9454148038675825e-05,0.004051775636310872,0.06331989615611111,0.007032364327783044
235,4.831460024381558e-05,0.004285105535216706,0.06436383924156852,0.006950870466626118
236,5.389669868632396e-05,0.0049280752435539605,0.0647987096872682,0.007341437099527826
237,7.28107088163337e-05,0.005250361807655447,0.07033051139875734,0.008532919126320888
238,4.8954379191908734e-05,0.0039380609845729555,0.0736514928127252,0.00699674061202132
239,4.321392189058447e-05,0.004517710258083133,0.04313798226666943,0.0065737296788493035
240,7.085792787304705e-05,0.005007087953311075,0.08374676270377934,0.008417715121875216
241,7.724627874542674e-05,0.005006227101094464,0.061346026690288546,0.008788986218297648
242,7.312086053262718e-05,0.004900149574786705,0.05662937079417518,0.00855107364794777
243,4.870608969126887e-05,0.0047158934402601665,0.07015365824161046,0.006978974830966846
244,5.4115415629346796e-05,0.004326072072196265,0.05505202584914626,0.007356318075596399
245,6.034769607183817e-05,0.005071897395766636,0.06152033898720388,0.0077683779562942095
246,4.0083192465374356e-05,0.004272042433120127,0.05084120793829561,0.006331128846056929
247,4.2686326071149916e-05,0.0037073430612194,0.06107007980989698,0.0065334773337901485
248,5.2981834292569145e-05,0.0043775412034299105,0.06379217630132171,0.007278862156447864
249,7.205906447777418e-05,0.004648076263114648,0.06934047950265654,0.008488761068481884
250,7.822419277189132e-05,0.005214018575308526,0.07229343120572951,0.008844444175406991
251,5.792151858753592e-05,0.004617824518355845,0.07646421817763704,0.007610618804508324
252,5.5843893618118624e-05,0.004653401634876736,0.05695113107062322,0.0074728771981157505
253,8.557464818705937e-05,0.006318311000142952,0.06297238977134345,0.009250656635453436
254,6.10967332878219e-05,0.004675896885583645,0.07524536436880935,0.007816439936941973
255,6.004657467642728e-05,0.005079919838223174,0.05857832072911906,0.007748972491655051
256,7.059430323915401e-05,0.0052847901807775806,0.06086683896313713,0.008402041611367674
257,5.66500793601462e-05,0.004202379101771989,0.06954546110241755,0.007526624699036466
258,6.799135348216149e-05,0.005268485662067077,0.06001710312586567,0.008245686962416206
259,6.942357030469719e-05,0.00516323695766599,0.05586152122600474,0.008332080790816715
260,6.0340056454438694e-05,0.005176340880489382,0.06370727298402468,0.007767886228211528
261,5.0086695410573874e-05,0.00487591507774846,0.055328039313817357,0.007077195448097615
262,7.673772398186207e-05,0.005173650404062545,0.0680955082503002,0.00876000707658739
263,5.998581242358093e-05,0.004565669195576885,0.06472791089354768,0.007745050834150814
264,8.363890953332585e-05,0.004769245498793119,0.0711286531311277,0.009145431074220901
265,4.5105489025070095e-05,0.0038943114692796834,0.06952969145274662,0.006716062017661081
266,3.777193975167175e-05,0.003716212127043941,0.05518938733274714,0.006145888036050727
267,6.755486496871839e-05,0.005385836248919672,0.0545348160181236,0.008219176660026098
268,5.5540004441543846e-05,0.004537221910726538,0.058763735005772755,0.007452516651544178
269,6.36248180103762e-05,0.004850473545017225,0.06765802134479104,0.007976516658941758
270,5.458862692046819e-05,0.0043619136627621345,0.08300342074523925,0.007388411664252883
271,6.33676861465133e-05,0.005772434620192418,0.06487390643506713,0.007960382286455394
272,7.390423392799003e-05,0.005288579420000613,0.07498275195704007,0.008596757175120704
273,5.6218041111002206e-05,0.004524447128753783,0.051778140413552776,0.007497869104685798
274,4.937594663935614e-05,0.0047691531638748945,0.05978964344002735,0.00702680202078838
275,5.493043569776265e-05,0.004877095538255231,0.056154529992511915,0.007411506978864826
276,4.749712792195024e-05,0.0035341051220931867,0.06593553973935778,0.006891816010453992
277,4.230388215757854e-05,0.004142489235682985,0.05493481548099732,0.0065041434607162624
278,4.5976541456138594e-05,0.004477803823571667,0.0527131080272607,0.0067806003757881345
279,6.414705139413428e-05,0.0052867955592180715,0.05925315561339506,0.008009185438865404
280,3.533948615802793e-05,0.0038994937840761785,0.05928102792216938,0.005944702360760182
281,9.039686533294903e-05,0.0056799283221164966,0.05989981462972782,0.009507726612232176
282,5.2633398696785014e-05,0.0044085630655489125,0.06462956842345391,0.007254887917589389
283,4.590380517643891e-05,0.004730755154064819,0.053194370854125594,0.006775234695303057
284,6.252239824736209e-05,0.004770948242200275,0.0753598534362383,0.00790711061307235
285,4.790527595880455e-05,0.004916460735308806,0.06323314204751362,0.006921363735479024
286,5.0996892024203287e-05,0.004298676581651015,0.07075631845301134,0.007141210823397018
287,3.8753934421380366e-05,0.004007655045524539,0.05512964771708351,0.006225265811303169
288,5.861494328033062e-05,0.004807333410213259,0.05934446609477895,0.007656039660315905
289,7.022362242560583e-05,0.005297342860448604,0.0627330790792262,0.00837995360521795
290,4.119616226767567e-05,0.004286660019780374,0.04705631067771626,0.006418423659098503
291,5.9591087095990656e-05,0.004978121028219451,0.06948540116848306,0.007719526351790654
292,5.190293492479041e-05,0.004046559201262466,0.06848293298425379,0.007204369155227239
293,6.544901844328493e-05,0.005101961651832425,0.0753240083828759,0.008090056763909911
294,6.658764688193263e-05,0.005019014530075628,0.06331639397647493,0.008160125420723153
295,4.609532262746696e-05,0.003617715402919053,0.06476911355020176,0.00678935362368662
296,6.362527997741525e-05,0.00433781851772217,0.07403677977155187,0.007976545616832803
297,4.755677730575921e-05,0.004341345011835953,0.056686905856478065,0.006896142204577767
298,4.43417759788816e-05,0.004381328277540583,0.04564976272829968,0.0066589620796999
299,8.001610480682584e-05,0.005191380095974894,0.0776855663796221,0.00894517215076518
300,4.679497707743619e-05,0.003922166639991363,0.05457242289528419,0.006840685424534267
301,5.570191749246626e-05,0.0051569324169693604,0.06896965927239748,0.007463371724124817
302,5.264863754022323e-05,0.00433133584413294,0.07452409290669659,0.007255938088229747
303,6.412409341391638e-05,0.005295581343449521,0.06503765526319771,0.00800775208244585
304,8.039701179749131e-05,0.005827242763581762,0.07411901909287,0.00896643807749156
305,7.30211650535676e-05,0.005557716007265242,0.06393167465742522,0.008545242246628655
306,6.1482028068398e-05,0.004976014557152691,0.0689871995679936,0.007841047638447163
307,5.862751256306844e-05,0.00515411210441635,0.05562920975436203,0.007656860489983355
308,8.045186763384742e-05,0.005837593461028477,0.06367189179247768,0.008969496509495195
309,5.789091528740512e-05,0.004258408585485693,0.06650989456061973,0.00760860797303979
310,8.008997771204072e-05,0.0058177999689082265,0.056407727876493174,0.008949300403497484
311,4.298895769241526e-05,0.0041340702418224086,0.055285111537224596,0.006556596502181222
312,7.50054545400639e-05,0.004883834956813625,0.07360830228993542,0.008660568950136192
313,7.572140616698695e-05,0.004083669768567087,0.0686547713508685,0.008701804764931603
314,5.732719869579226e-05,0.0049900790401615075,0.05442340189500694,0.007571472690024802
315,3.787865899967408e-05,0.0037496994974099184,0.053974340458204484,0.006154564078768991
316,6.26609774574129e-05,0.004817905545396103,0.07118689791154997,0.007915868711481535
317,6.330585903990261e-05,0.00482390527304957,0.06397913540306521,0.007956497913020666
318,8.01120153429023e-05,0.00536175533557934,0.05677931653841184,0.008950531567616608
319,5.2230941304058706e-05,0.004087009466736837,0.06985405337268258,0.007227097709596729
320,5.8134983109114634e-05,0.005151301256650878,0.06345404267799504,0.00762463003096637
321,6.649173102793733e-05,0.004971154083340143,0.06688391691321383,0.008154246196181275
322,6.566924723565068e-05,0.004810721257238769,0.07047758282210981,0.008103656411500335
323,4.769593109666282e-05,0.0035599490111507294,0.05538691025119791,0.006906224083872626
324,3.6849129461605375e-05,0.004376645031051151,0.04019851007205544,0.006070348380579573
325,4.599803580901676e-05,0.00459005177193313,0.05736271765869905,0.006782185179499038
326,6.541302668265471e-05,0.005235014418825123,0.06374654384829181,0.008087832013750922
327,4.987397073345881e-05,0.004464280306248984,0.06306385215337862,0.007062150574255577
328,4.1915080146758324e-05,0.003898360516006765,0.060526380912286015,0.0064741856744117456
329,6.132250613724726e-05,0.0045433432673187765,0.06876138277152655,0.007830868798367557
330,6.111447963878427e-05,0.0048749652434682215,0.06533394678086779,0.007817575048490668
331,7.004523684887684e-05,0.005301412026962172,0.07232034327246506,0.008369303247515652
332,4.8586648397767185e-05,0.003972070927784104,0.0763439151571923,0.0069704123549304406
333,7.99677713388654e-05,0.005427369640702124,0.05935841937667785,0.00894247009158347
334,5.560012280258984e-05,0.004790168740810331,0.055603313307065916,0.007456548987473321
335,6.580805193646917e-05,0.005429707642348766,0.06613380942811897,0.008112216216082284
336,4.9414200776537504e-05,0.00438598533535599,0.04786840452081087,0.007029523509921356
337,5.376523953683148e-05,0.0047958699735607705,0.05745564476488019,0.0073324784034343345
338,4.709934731442292e-05,0.004856279607382246,0.04556434957948152,0.006862896423116302
339,4.585064931463269e-05,0.004140468066509161,0.0705355592683814,0.006771310753069326
341,6.389697669341209e-05,0.004938369634966391,0.05739375135115643,0.007993558449990324
342,6.801703888574405e-05,0.004878451080079153,0.0691597101250897,0.008247244320725749
343,5.624392004768822e-05,0.004810582741082025,0.04789550815533117,0.007499594658892428
344,5.4537803546896736e-05,0.00500856828168628,0.05549638726919737,0.007384971465543815
345,5.573475778900393e-05,0.0046972394477477605,0.06544242826201208,0.007465571497816056
346,4.5428293734513674e-05,0.004252280815421796,0.07245449677879634,0.006740051463788181
347,7.463566897400516e-05,0.005771400152552044,0.06894775887904392,0.008639193768749765
348,4.208364734439522e-05,0.0042224426982162165,0.04095989146469514,0.006487191021111906
349,6.832220424706425e-05,0.005442981126748461,0.06446373132504324,0.00826572466557311
350,5.6053684886370734e-05,0.00497473581760498,0.06748092634524205,0.007486900886639935
351,5.050147475394963e-05,0.004524296736697207,0.06325300953333907,0.00710643896434419
352,6.080663675989947e-05,0.0049713833433796175,0.07642035925813048,0.007797861037483225
353,5.9289129722096544e-05,0.004669855212761471,0.05972507431199059,0.007699943488240424
354,5.8774482283354397e-05,0.005030753857811555,0.05975692909146202,0.007666451740104661
355,5.968438382243419e-05,0.005319696797159167,0.05399009840867475,0.007725566893272862
356,4.7168219493434224e-05,0.004371637531244065,0.05968266658746435,0.006867912309678528
357,4.634577147364352e-05,0.0043761591697471965,0.05262498008582828,0.006807772871772627
358,5.7636961521068015e-05,0.004303025655168714,0.05665761199879604,0.007591901047897532
359,5.9730410691548754e-05,0.005049365615890737,0.05525612274444075,0.007728545185967952
360,4.458191140262103e-05,0.004187730457257814,0.05158783750384899,0.006676968728593872
361,7.020333487669853e-05,0.005339191027936029,0.06163957492143357,0.008378743036798404
362,5.7861424360820545e-05,0.004952350749683323,0.055181904499174136,0.00760666972865393
363,4.806726189768775e-05,0.0044920174811982514,0.06027865942178945,0.006933055740269751
364,3.985623905406759e-05,0.004312216860300748,0.044486950380746126,0.006313179789461669
365,5.525424937615816e-05,0.004709180081748082,0.06040888099427,0.00743332021213654
366,7.51427649824467e-05,0.004930265801476086,0.05726652483181355,0.008668492659190877
367,6.299972562230024e-05,0.004916022961026699,0.06326265108315256,0.007937236649004437
368,4.824587522765094e-05,0.004191973660973473,0.07394697965458752,0.006945925080768607
369,6.214206486840447e-05,0.005222308353756336,0.06350637052404773,0.007883023840405661
370,4.90178259384274e-05,0.004454630212263022,0.060545884333288225,0.007001273165534038
371,4.704303775818925e-05,0.004271629345880113,0.06318028894519934,0.006858792733286877
372,5.816385206455927e-05,0.0044690140121290516,0.06305564009763698,0.007626522934113481
373,5.849216951689916e-05,0.004186173768393525,0.0763333224626736,0.007648017358564155
374,6.357994149693072e-05,0.005414365395265728,0.06470304332340593,0.007973703123200067
375,7.735006133824335e-05,0.005757437445426467,0.06536332654200994,0.008794888364171721
376,6.516869628800495e-05,0.004540411436467377,0.055487678990490785,0.008072713068603653
377,5.580294966470995e-05,0.005301827589113623,0.06619805746101348,0.0074701371918264965
378,4.250296842839011e-05,0.004327810912847268,0.05073112141673808,0.006519430069292062
379,5.439998376805826e-05,0.004138013914124348,0.06521394448125073,0.0073756344654584095
380,6.224969382392612e-05,0.004352868240751833,0.07737951668645998,0.007889847515885551
381,3.151620813764491e-05,0.003970495810247627,0.04366602129392372,0.005613929830131901
382,4.7401821745622024e-05,0.004163800120880624,0.07455599879672903,0.006884898092609754
383,5.694456674241422e-05,0.005032460770172476,0.060735760021336294,0.007546162385107654
384,4.8653776666306744e-05,0.004697497455867299,0.060362647363986,0.006975225922241264
386,6.917902162253033e-05,0.004792110240673391,0.06156180268662348,0.008317392717825115
387,7.479375268537244e-05,0.005554534280222194,0.07596384653638388,0.008648338145873574
388,3.869424892694327e-05,0.004289806226435301,0.04979633506939063,0.006220470153207318
389,5.2963046073810593e-05,0.004865173248324641,0.04898803507646754,0.007277571440653142
390,3.6822020458597e-05,0.0035570752491882853,0.08529624947837461,0.006068115066360965
391,5.3785198568410156e-05,0.005045959136119088,0.06327454316564607,0.007333839278877737
392,5.734951085716476e-05,0.004839140347093044,0.05748697913764245,0.007572945982717963
393,4.7447934345210625e-05,0.0033817159630684245,0.06430313448713143,0.0068882461008017365
394,5.941378456864595e-05,0.0050116061575769975,0.057680208438396635,0.007708033768001142
395,7.797901116012589e-05,0.004453570459839366,0.07845658531419986,0.008830572527312449
396,4.45698100880465e-05,0.004626339598599372,0.056106619388201384,0.0066760624688544075
397,5.491926868594476e-05,0.0041425570050377305,0.07754436219783134,0.007410753584214248
398,5.204473982303822e-05,0.004405802504985752,0.07009848432512689,0.007214204032534558
399,7.443403362263438e-05,0.0055944912664906,0.06705890928352565,0.008627516074898601
400,6.614137274371806e-05,0.004952223752670204,0.06117183222298728,0.008132734641171905
401,6.188003375199826e-05,0.005033012786758724,0.06030798445011065,0.007866386321049688
402,4.0698840861261725e-05,0.004040547562688691,0.0450588337127642,0.006379564315943632
403,6.67364806580555e-05,0.004668950193125242,0.06461003501661011,0.008169239906995928
404,5.1846368866016803e-05,0.004753770651979318,0.0627064206148065,0.007200442268778798
405,5.290505114789186e-05,0.0041926109416101165,0.07847576179527938,0.007273585852101538
406,5.3352904209801645e-05,0.004275463062060785,0.06264845546202741,0.007304307236815909
407,6.396843547272224e-05,0.005687180126611732,0.05386836830706532,0.007998026973743064
408,8.344041886574205e-05,0.0053749280960376095,0.08218053104617695,0.00913457272485917
409,6.243534052059147e-05,0.004734927952204826,0.06251899632555036,0.007901603667648182
410,5.3605617178181065e-05,0.003817492985141442,0.05194192506304711,0.007321585701074662
411,6.907820880377698e-05,0.005087940850499201,0.06467238226989935,0.00831133014647935
412,6.32602805117134e-05,0.004727774749561884,0.06936152630678727,0.007953633164266042
413,7.298928525582908e-05,0.004998900585472618,0.06279782336846718,0.008543376689332409
414,6.793222771271363e-05,0.005474708800649088,0.059357911575673494,0.008242100928326054
415,4.24592902072435e-05,0.0041860886100995994,0.0627801179480798,0.0065160793585747
416,6.052427641778281e-05,0.0046969232564281664,0.07109337987654563,0.00777973498377562
417,4.668211713695569e-05,0.004174877568469581,0.06422149624485299,0.006832431275684762
418,6.88485612634778e-05,0.00538119820826504,0.057329324912272384,0.008297503315062734
419,6.437620726811109e-05,0.00518137505509012,0.06437034376940431,0.008023478501754139
420,7.448477786849123e-05,0.004567526731547271,0.07738488692023093,0.008630456411366137
421,4.6234973836168374e-05,0.004434308587763708,0.06318021690071429,0.006799630419086611
422,3.2357207458776803e-05,0.0036690431600417996,0.04701965054792545,0.005688339604733237
423,6.385342050146548e-05,0.0044177554660948404,0.07006368690945547,0.007990833529830628
424,6.453397021064292e-05,0.0048297741093338165,0.06592732193492379,0.00803330381665241
425,5.098884444301373e-05,0.005031421464350405,0.05183564112994077,0.0071406473406136935
426,6.339340270323145e-05,0.005098823766740547,0.07511942734917021,0.007961997406633023
427,7.128845366355906e-05,0.004965997105958371,0.072670031087743,0.00844324899926316
428,5.422822476645577e-05,0.004934440767208852,0.06562681121590463,0.007363981583793887
429,4.970502390887302e-05,0.004095279579810747,0.06610394369776262,0.00705017899835691
430,5.58676290384037e-05,0.004696856383670574,0.07140101608356833,0.0074744651339345505
431,5.789130814999614e-05,0.005451101517945487,0.04865386190193588,0.007608633789978036
432,5.5129037652459506e-05,0.004783258158044551,0.050671750852585795,0.007424893107140258
433,6.326777288360357e-05,0.004437122634776703,0.07737102777361993,0.007954104153429417
434,5.157907446859711e-05,0.004459470908782239,0.0680849429420678,0.007181857313299729
435,6.648532674537197e-05,0.004790902272419365,0.06604943156521598,0.00815385349055106
436,4.516990899544813e-05,0.0036150941170657665,0.07638956653101792,0.006720856269512661
437,6.748950386090511e-05,0.004970438088094608,0.08293455518969317,0.008215199563060223
438,6.0253263964389186e-05,0.003854954131471269,0.08246640635560715,0.0077622975957115274
439,5.069953574902536e-05,0.005067298893954036,0.05143640625934354,0.007120360647398755
440,5.475460963496911e-05,0.004364228107407011,0.06807483313610008,0.007399635777183123
442,6.305763414499174e-05,0.004539919663282112,0.0637221073654759,0.007940883713100911
443,8.223394849094321e-05,0.00523704667311164,0.07532054820907597,0.009068293582088204
444,6.303121787901721e-05,0.004681970667749125,0.06717188663473489,0.007939220231169842
445,5.95067910645459e-05,0.004775987849434992,0.05466945078246921,0.007714064497043397
446,6.028701761222028e-05,0.004992026224503928,0.05386899119771282,0.007764471496001502
447,6.530870295732406e-05,0.004526929833187251,0.05739989018508185,0.008081380015648523
448,5.993816556527878e-05,0.005029674184800545,0.056241229471570175,0.00774197426792922
449,5.473737745985197e-05,0.004869983758406391,0.0660163800062834,0.0073984712920880935
450,5.420388743571582e-05,0.004735696642045847,0.05677802582092184,0.007362328941015592
451,4.224691393978105e-05,0.004082944403833329,0.053141092085409264,0.0064997626064173
452,5.949381886593922e-05,0.005307407431731974,0.06695392130499478,0.007713223636453091
453,7.542029055657894e-05,0.006458455862035283,0.046110275012589685,0.008684485624179377
454,6.45864806466493e-05,0.005127621995917593,0.06002572556818864,0.008036571448487765
455,6.871912968182965e-05,0.005162681916992303,0.0664379240023294,0.008289700216644078
456,4.440353272299804e-05,0.003816778896369035,0.06448695834497298,0.006663597581111698
457,3.479083642284376e-05,0.0038270638856955897,0.06024073598205515,0.0058983757444608115
458,5.735937442521682e-05,0.00404281954412125,0.06964764282461111,0.007573597191904003
459,4.917446872489307e-05,0.005066113873232874,0.047018020108964886,0.007012450978430633
460,4.1840335213349326e-05,0.004432508051668708,0.047213337304687464,0.006468410563140604
461,4.919171848279453e-05,0.005065792734894641,0.053463935654445294,0.007013680808448167
462,6.986283053226582e-05,0.0036297639228637254,0.06910623620469769,0.008358398801939587
463,4.799413446950394e-05,0.004402581812461473,0.0662812700183737,0.006927779909141424
464,5.705599172177772e-05,0.004721966376117293,0.05402681978636403,0.007553541667441667
465,5.4296732213073705e-05,0.005069349917796105,0.05333154446589486,0.007368631637765131
466,6.750290898250754e-05,0.00456830048786356,0.06371433699051243,0.008216015395707753
467,4.2170463534391776e-05,0.004498048585597928,0.047669634594169584,0.006493878928220912
468,6.359661089653634e-05,0.005206372012594631,0.06821030053768673,0.007974748328100143
469,5.85249568152644e-05,0.0042095836877914725,0.06139103821213121,0.007650160574475807
470,6.081016970517439e-05,0.004631847946979,0.07134279848127578,0.00779808756716504
471,7.079536088357621e-05,0.005030623455725155,0.06009438397384374,0.00841399791321435
472,4.913999871915988e-05,0.005086176861369796,0.04974958243266392,0.007009992775970552
473,6.138682379036394e-05,0.005233823946225544,0.06540271789267305,0.007834974396280007
474,6.145855187191695e-05,0.004570787810604965,0.06409633791032765,0.007839550489149024
475,7.483252597067303e-05,0.005843189216016798,0.0657878684113915,0.008650579516464346
476,4.9228018017493724e-05,0.004713620688725349,0.04502787622295212,0.007016268097606677
477,5.776593133876784e-05,0.0038773444135379027,0.06067700674182763,0.007600390209638398
478,5.328050284966957e-05,0.004995300376546935,0.07604454988472709,0.007299349481266745
479,5.503444120890547e-05,0.005010059652799371,0.05313839866575953,0.007418520149524766
480,5.831197788643609e-05,0.006043569576796484,0.03328752336477736,0.007636227988112699
481,4.616447497767143e-05,0.004353947484659895,0.06238869102707534,0.006794444420088453
482,4.302162667558025e-05,0.0038712084780597425,0.0779077570568747,0.006559087335565809
483,6.288446418680126e-05,0.0048593463497297856,0.06730537491575017,0.007929972521188247
484,6.581152543252908e-05,0.0049161038485083025,0.06356405382150236,0.008112430303708517
485,5.9295875571343585e-05,0.005192026581381546,0.061514619586488184,0.007700381521154856
486,7.763594434011316e-05,0.005174863092264409,0.07916250328771479,0.008811126167528889
487,5.30837075145622e-05,0.004472077613065695,0.0704936456975922,0.007285856676778749
488,7.254547920763275e-05,0.0047560499415371825,0.07397782656987673,0.008517363395302123
489,6.453367315018239e-05,0.005119344834371146,0.06036451563821155,0.008033285327322925
490,5.852763385025274e-05,0.003988565334717019,0.06268843535536583,0.007650335538409557
491,4.208961620956146e-05,0.004112620653694115,0.056434109215796446,0.006487651054854983
492,7.190630672923378e-05,0.004895757676557039,0.0675333113869262,0.008479758648053209
493,4.429977386435729e-05,0.004370765193689614,0.051739710763992974,0.0066558075290949386
494,6.0533502848387215e-05,0.00507528152397924,0.05994661967568349,0.007780327939642809
495,4.901797072061092e-05,0.004736020272154196,0.052940594744386615,0.007001283505230341
496,6.383646938964486e-05,0.00442492693922235,0.06540730415939677,0.007989772799626052
497,4.946906368690266e-05,0.004388893708616036,0.06422234649285619,0.00703342474807988
498,4.4595313473899815e-05,0.004052107315052671,0.04648092791300251,0.006677972257646746
499,6.346343231092683e-05,0.004769576093380155,0.055932580511063534,0.007966393933953202
500,6.345832727290635e-05,0.004808413773631704,0.05185103612307307,0.007966073516664646
501,5.0703207516536736e-05,0.004175199100998308,0.07085283920991814,0.007120618478512676
502,7.466786492219242e-05,0.00454561463270946,0.07601551110406035,0.00864105693316463
503,5.799715258763999e-05,0.005108012965887856,0.05026400494257477,0.007615586161789468
504,4.135021285242632e-05,0.00415487353537356,0.0553108945119698,0.00643041311677765
505,5.718672700081666e-05,0.004178315662674533,0.06925047822621089,0.0075621906218248805
506,5.3998858080457235e-05,0.0049012920455343495,0.07248070630755543,0.007348391530155198
507,8.176886926717858e-05,0.0037339848027406505,0.09092485789661087,0.009042614072666023
508,5.822368542555856e-05,0.005373105387559703,0.06676200227325779,0.007630444641405778
509,6.0094643745593206e-05,0.004569034833181166,0.07108743183156818,0.007752073512654067
510,6.191804058349682e-05,0.0047139688922908625,0.0634439358193643,0.00786880172475433
511,5.185356348770159e-05,0.005107906791318744,0.05238627146912567,0.007200941847265621
512,4.806666657449692e-05,0.004848740616282339,0.06495242528819778,0.0069330128064569755
513,7.091723786186168e-05,0.005254989975906627,0.06888140068164206,0.00842123731181238
514,4.755509230730304e-05,0.0037930280441917917,0.06463574347288503,0.006896020033853047
515,6.977803454497103e-05,0.005787006221582657,0.05144113075210577,0.008353324759936644
516,5.128857139289707e-05,0.0038358258995380328,0.061181618026109774,0.0071616039678899105
517,5.215761588937914e-05,0.0045966980916066465,0.06448204507745992,0.0072220229776274415
518,4.60424883652586e-05,0.004537163452135443,0.06415736068022165,0.006785461544011444
519,5.638094730771215e-05,0.005250668239376996,0.06916440296465254,0.007508724745768201
520,5.608396310602804e-05,0.0047074284592616995,0.059765250097110645,0.0074889226932869125
521,3.522013551364697e-05,0.0041529612210748626,0.043421307376580565,0.00593465546713933
522,5.41476794920472e-05,0.004459937335658816,0.07029927376778833,0.007358510684374031
523,5.236130045244269e-05,0.0049701227545622525,0.04142238337357229,0.007236110865129313
524,5.727528550379861e-05,0.004811230088079914,0.06509336729909862,0.007568043703877375
525,7.976140351134195e-05,0.005786029661845061,0.07499533209306897,0.008930924000983402
526,6.499645167510139e-05,0.005085475792624609,0.06160249941339968,0.008062037687526703
527,6.284436753047774e-05,0.005325860798054494,0.06503864151098071,0.007927443946851805
528,6.119707333376491e-05,0.0046709132325542324,0.07140658131365418,0.0078228558297954
529,5.230906479947159e-05,0.004963039455238169,0.061963397376258555,0.0072325005910453335
530,6.927096829320802e-05,0.005132334250522049,0.06627126747613077,0.008322918255828734
531,6.318684591405332e-05,0.004724446978861248,0.06217223727341903,0.0079490154053224
532,5.7484140740957145e-05,0.005050029513571445,0.05085843149385072,0.00758182964336162
533,7.370961428134879e-05,0.00527670254782683,0.07373775218708634,0.008585430349222347
534,5.902464814702233e-05,0.004836137292631314,0.05541187505672595,0.00768275003804118
535,6.226575343262799e-05,0.004465525447341199,0.06863623732677593,0.00789086518910491
536,5.825108552040315e-05,0.003997597408117975,0.07082654618736983,0.007632239875711653
537,6.34820575989115e-05,0.0038592580363810357,0.07147125620900896,0.007967562839344989
538,5.5917204705238966e-05,0.004761927619719188,0.07344791482448487,0.007477780733963706
539,4.319122426753295e-05,0.0037578188746151004,0.050372014698371353,0.006572003063566878
540,4.4165496134977836e-05,0.004162001248995417,0.06760202210310107,0.00664571261302935
541,4.013736348065123e-05,0.004074397609437271,0.05419651232769729,0.006335405549816909
542,4.8389376124284916e-05,0.004440379762415076,0.04907023259013814,0.006956247273083724
543,3.7935019063606476e-05,0.0037863899959806164,0.06232113098847725,0.006159141097880949
544,5.484591347849501e-05,0.0043925070974954565,0.05764709870698592,0.007405802689681559
545,6.639922112403535e-05,0.0054979559129394355,0.06066056033738931,0.008148571722948443
546,6.323509525824059e-05,0.005480477126733426,0.05800814815914879,0.007952049751997283
547,7.590236717942739e-05,0.00496159639343155,0.06910001533925936,0.008712196461250554
548,6.046297974168037e-05,0.005060949169955732,0.07291733302224679,0.0077757944765586675
549,5.969666149958408e-05,0.005102404610873004,0.05714407731172044,0.007726361465760172
550,7.450628326772465e-05,0.005688939175164817,0.06115418671597217,0.008631702223068409
551,6.0820212174790016e-05,0.004696161831255867,0.0765210697859424,0.007798731446510371
552,3.7136646557219125e-05,0.0041923315794812534,0.04914047924647447,0.006093984456594783
553,7.500581025257421e-05,0.004627360597181348,0.059477939240829336,0.008660589486436466
554,6.005774101856348e-05,0.005364886352198566,0.058762981055929246,0.007749692962857479
555,6.427684300366954e-05,0.00528560053183881,0.055681833404431114,0.008017284016652321
556,4.8752747653527674e-05,0.004360812802605579,0.07450989440012235,0.0069823167826679996
557,4.450634033020584e-05,0.004134245622309262,0.07376366659412525,0.0066713072429776055
558,4.721645366996464e-05,0.004283798135764815,0.07356132406745619,0.00687142297271563
559,4.0707294967624594e-05,0.003958672287172152,0.07609901368913308,0.00638022687430662
560,6.965845517609923e-05,0.0045813056890513975,0.06947953036041787,0.00834616409951893
561,4.701821135363708e-05,0.004703023739254134,0.05340578232912851,0.006856982671236423
562,4.636003692610147e-05,0.004106317377643816,0.08154545896896304,0.0068088205238573535
563,6.0649371342850216e-05,0.00500558069138974,0.07090565277576033,0.007787770627262318
564,6.374574014172603e-05,0.005455137909445102,0.05548889534909662,0.007984092944206345
565,5.131979770419187e-05,0.004218902936217033,0.07036287113194173,0.007163783756102038
566,5.179992014840426e-05,0.004587853906746876,0.06179850660339886,0.007197216138786132
567,4.690073764594531e-05,0.004819584839588094,0.06388299032014233,0.006848411322777348
568,7.92298125394517e-06,0.0015391784413994244,0.027221006152488857,0.003980698746186418
569,6.381642645850409e-05,0.005439287629884515,0.047118482844301646,0.007988518414481095
570,6.5336463381438e-05,0.005101593057231283,0.06869358589375008,0.008083097387848149
571,7.683671333874697e-05,0.00586850855306414,0.052305238083087735,0.008765655328539106
572,5.724513499235142e-05,0.005314147557861624,0.05955468344458481,0.0075660514796259985
573,6.732909097027995e-05,0.004317719094309498,0.06415839244099786,0.008205430577994036
574,4.516307271255636e-05,0.004224339831226604,0.05542196919014876,0.006720347663071912
575,5.997265101215916e-05,0.004797272534306597,0.05038320565791654,0.007744201121623752
576,4.746925893581914e-05,0.004380757749679202,0.050555377689253334,0.006889793823897691
577,6.579157212824968e-05,0.004982721515136314,0.07041576699282664,0.0081112004122848
578,5.823528490662518e-05,0.0046712726701202065,0.06477815692442124,0.007631204682527169
579,7.404670317883989e-05,0.004992874791110243,0.07164299601319785,0.00860503940600151
580,6.934814483728836e-05,0.005199163618871873,0.0680485759010141,0.008327553352413185
581,6.854335853880459e-05,0.005302814626786117,0.06210882184383948,0.008279091649378189
582,8.467194299258471e-06,0.0019017100478381404,0.032490357634378346,0.004115141382567164
583,5.4636168276046455e-05,0.0043145587817644505,0.05876679191010048,0.007391628256077692
584,4.580815544745831e-05,0.004579402638468624,0.05663165428654082,0.006768172238312051
585,6.444334647476809e-06,0.0014744209718279384,0.024448812016479592,0.0035900792881151714
586,5.590078269819457e-05,0.005317033967470388,0.06443709270622561,0.007476682599802822
587,6.657709469454745e-05,0.005481323044253374,0.06608352340529677,0.00815947882493402
588,6.439109793877685e-05,0.004602363625456449,0.06895311624561984,0.008024406391676371
589,5.261098428803755e-05,0.004967284781631366,0.049347155613864935,0.007253342973280494
590,4.946062183727317e-05,0.004578288367664243,0.0529075914177386,0.007032824598784805
591,5.7907149750749825e-05,0.005041002115660352,0.06038846954734245,0.0076096747467122115
592,7.927685426917461e-05,0.004981194654377768,0.08127449901974604,0.008903755065654826
593,6.548231773049505e-05,0.005181415736345567,0.05900665400528471,0.008092114540124509
594,3.561769188504604e-05,0.0034872661561292304,0.047591402574026276,0.005968055955254265
595,5.319702016340881e-05,0.004648740577085666,0.06329870344085498,0.007293628737700364
596,4.817449323887661e-05,0.0047513484538299665,0.051394733505433,0.006940784771110269
597,5.471390638263491e-05,0.005119794260512987,0.062469155766507356,0.007396884910733331
598,6.142111419243689e-05,0.004854021688602664,0.07293827033919142,0.007837162381400337
599,5.975051643464773e-05,0.004736253870345133,0.06961795793651776,0.007729845822178303
600,5.56813046180667e-05,0.004933577855794156,0.052564298267592235,0.007461990660545365
601,8.047007015148073e-05,0.004949807486770073,0.0759988653054684,0.008970511142152377
602,4.6736984016544586e-05,0.004772592885483613,0.06200782401676452,0.006836445276351172
603,6.958345943330073e-05,0.005197858511132618,0.062480843120662044,0.008341670062601404
604,5.3005524227656013e-05,0.004695671516200349,0.054141736635512805,0.007280489284907686
605,6.66964514784922e-05,0.005959245455255592,0.051727891825272376,0.008166789545377764
606,6.666224198581189e-05,0.005324683944774188,0.06617767295860189,0.008164694849522014
607,6.891551591946097e-05,0.005301840049433425,0.06593469399972562,0.00830153696127774
608,6.648557215930737e-05,0.004172311796304806,0.08502245406931053,0.00815386853949135
609,5.757057244372173e-05,0.004748906945115173,0.06150669914903251,0.007587527426225306
610,6.452046816496557e-05,0.004565959341266029,0.060263589584380384,0.008032463393316217
611,3.7150859976649566e-05,0.004421761430635318,0.046668188697035706,0.006095150529449563
612,5.446711637387833e-05,0.005007465201296191,0.046897245384484254,0.007380184033875957
613,6.806938705710059e-05,0.004367528411800434,0.061293982959185866,0.008250417386841707
614,5.9538403332585475e-05,0.004070213086036924,0.07660850361136973,0.007716113227045426
615,6.428569121914587e-05,0.00454982259860797,0.07180596532347128,0.00801783581891931
616,6.178209140411306e-05,0.004600572442235495,0.05130583688645646,0.007860158484668905
617,5.933739958796191e-05,0.004700657771131334,0.07084157115937206,0.007703077280409548
618,5.880359967210737e-05,0.004597364868286456,0.06748099698755716,0.007668350518338793
619,5.401825752266331e-05,0.004272548376718033,0.05541470313300145,0.007349711390433165
620,4.500137453699876e-05,0.004375581567098548,0.04919556363164457,0.006708306383655892
621,5.0703224540235295e-05,0.004509125903648039,0.06855362961235656,0.007120619673893208
622,5.467102364467921e-05,0.004780004427955468,0.05157488125161436,0.007393985640010312
623,4.892608386189393e-05,0.004670227799184935,0.06481845524511964,0.0069947182832401054
624,4.350462981630724e-05,0.004047410106563893,0.06479192269549161,0.006595803955266326
625,5.107005878770005e-05,0.004501605837628305,0.05757844222029207,0.007146331841420432
626,6.755576324400825e-05,0.005237104975927053,0.06745238161677447,0.008219231304934047
627,5.3581987748482725e-05,0.004650350145930033,0.05024396968150113,0.007319971840689159
628,5.8448069484845314e-05,0.004784454967660972,0.05211256308595873,0.007645133712685791
629,7.00665733471325e-05,0.004627347599453999,0.07599159034502057,0.008370577838305545
630,5.64623227146482e-05,0.004846174600137297,0.05612328043137582,0.0075141415154791795
631,5.232630492866164e-05,0.005427325424901928,0.045861447023569646,0.007233692344070286
632,5.836547850772243e-05,0.005419791881370236,0.06090730700435687,0.007639730264068349
633,3.1421332175143826e-05,0.003709709724941375,0.06677470183363177,0.00560547341222342
634,5.2583338405964866e-05,0.005217657435014768,0.054416671043743925,0.007251436989036331
635,4.77521267081693e-05,0.004082086820144683,0.07560175414978598,0.006910291362031626
636,5.6819313559699506e-05,0.005368200060633168,0.06258081076978517,0.007537858685309701
637,5.416751042662741e-05,0.003697375205951649,0.0733398702684318,0.007359858043918163
638,4.450332307130173e-05,0.004481549143065692,0.061453542427420516,0.0066710811021378985
639,6.429488534657881e-05,0.005174184047033957,0.07160091328381424,0.008018409153103773
640,3.3950467873454435e-05,0.003780109744095869,0.04538772818070669,0.005826703001994685
641,3.837669186927459e-05,0.003894334233892916,0.07184432940069474,0.006194892401751155
642,4.4082377827334864e-05,0.004306679153838133,0.05564894124122602,0.006639456139423954
643,5.2755808822841946e-05,0.004524661060616281,0.08262244444625022,0.007263319408014584
644,4.653423813202226e-05,0.004654819890909906,0.05271940075351368,0.006821600848189652
645,7.002469279698564e-05,0.0053445642145348166,0.06667357007589114,0.008368075812095954
646,5.803673041619018e-05,0.005148936954361337,0.06853661285710011,0.00761818419416267
647,4.8816640756525504e-05,0.004699369757982057,0.05140017293166399,0.00698689063579253
648,5.478362067856901e-05,0.004649702589289232,0.06204031225046802,0.007401595819724871
649,4.318877251879037e-05,0.004318744662441507,0.061477170427249206,0.006571816531126677
650,6.816408113124432e-05,0.005283400204041404,0.05762727074540086,0.008256154136838997
651,5.771759185918427e-05,0.005139620493224631,0.050412775596304193,0.007597209478432431
652,5.769774955184479e-05,0.005414744770013122,0.04799759140010096,0.007595903471730299
653,6.757130290403698e-05,0.0045274025076238785,0.06514913418990176,0.008220176573774832
654,6.580019250065126e-05,0.004685837329334489,0.05499011787786534,0.008111731781848484
655,5.781541008020503e-05,0.004066524075220295,0.055265677965718796,0.007603644526160106
656,5.948244113468775e-05,0.004844249790317482,0.06050590346383009,0.007712486054099997
657,7.266852245419062e-05,0.00465754322341375,0.09000464524302054,0.008524583418219904
658,6.678804997789053e-05,0.0052423975738625245,0.059986770742992634,0.008172395608258946
659,7.009467315173713e-05,0.005521274131576905,0.06036136908209078,0.00837225615660059
660,7.244037235512926e-05,0.004945126519679462,0.07047832275342891,0.008511191006852615
661,5.0510963764586755e-05,0.004181862066319737,0.06046885480454334,0.007107106567695903
662,6.285125718919618e-05,0.005156946555145631,0.07312197149992183,0.007927878479719246
663,6.664162444257252e-05,0.004397755559750747,0.07461900415971012,0.008163432148463769
664,5.433066910514541e-05,0.005089276486156278,0.04894086855354751,0.0073709340727715665
665,4.3713534723168196e-05,0.004010626995251909,0.052420538096459746,0.006611621187210268
666,5.1584257830853306e-05,0.005183697559495459,0.05311512865057111,0.007182218169260317
667,4.288214297088002e-05,0.003978845282574917,0.06156522251142116,0.006548445843929677
668,5.143822597140692e-05,0.0048157333310504015,0.05473433415320894,0.007172044755256803
669,3.9286225465258276e-05,0.003875582998945517,0.06146507378400212,0.006267872483168269
670,5.443557004011207e-05,0.004040342337315552,0.057610214575948726,0.007378046492135418
671,7.500744467661791e-05,0.0061599769930326675,0.06821830337174606,0.008660683845783638
672,7.22825437858526e-05,0.005368306037487957,0.05917163787978752,0.00850191412482226
673,6.939248756062099e-05,0.0047811524017189215,0.06158336220735938,0.008330215336989806
674,6.902248435904855e-05,0.005702769565686081,0.0500798471305024,0.008307977152053789
675,6.782060019967011e-05,0.005593690387380407,0.06338128163585655,0.008235326356597496
676,6.226407177651225e-05,0.004737978805927604,0.06853970986288394,0.007890758631241472
677,4.4325136693054574e-05,0.0045409596667777006,0.07344226028016276,0.006657712572126735
678,5.646294054721082e-05,0.0050634054030731165,0.06186845341007574,0.0075141826266873785
679,5.1044190659725225e-05,0.005020605977684714,0.07064424810890957,0.0071445217236512665
680,7.889593079855559e-05,0.0044240188245741495,0.07184622832342846,0.008882338138044243
681,6.0299970979794906e-05,0.004382885607998158,0.0756425933961472,0.00776530559474605
682,2.7444342738252913e-05,0.0034892424423453353,0.04549865076703204,0.0060491699417636645
683,5.28887846596754e-05,0.005078614597031242,0.06336395465816458,0.007272467577079682
684,7.117073249629045e-05,0.004319315584885866,0.08452308983363022,0.00843627479971401
685,4.179452208499184e-05,0.003328441802346489,0.07291543718591775,0.006464868296028278
686,7.733443509332178e-05,0.005360145633346771,0.05980692332188031,0.008793999948449012
687,4.6822817571459155e-05,0.004843729353406509,0.041791589144603236,0.00684272004187361
688,5.848090461926874e-05,0.004079027539676792,0.07499719631768809,0.007647280864416347
689,3.955212977349931e-05,0.0038816396725833073,0.05062535827522652,0.006289048399678536
690,6.483806703559195e-05,0.005255400695327368,0.06781424471493214,0.00805220882960641
691,4.1934551269531924e-05,0.0035193132693644106,0.06992365118064248,0.006475689250537858
692,6.757416069468531e-05,0.005203638019308534,0.06841496930217428,0.008220350399750916
693,4.710203339922217e-05,0.004425146578795244,0.04853323052461933,0.00686309211647503
694,4.262367325302757e-05,0.004396187726821711,0.05113360755495977,0.006528680820275049
695,7.532560532698144e-05,0.006186678100068515,0.06307430367338007,0.00867903251099918
696,3.643014227667543e-05,0.0037714043802431906,0.06322039177306671,0.006035738751526193
697,4.405169508310806e-05,0.0033759039644088978,0.07069380569324668,0.006637145100350583
698,5.673940391231038e-05,0.004218716071386549,0.06306453911466081,0.007532556266786844
699,7.084508929640414e-05,0.005033314475593862,0.06942861539724676,0.008416952494602978
700,6.581319415887386e-05,0.0047032915703942935,0.058288862401609354,0.008112533153021542
701,7.178172773882817e-05,0.004402785062420532,0.06618428832730305,0.008472409795260585
702,4.875651720545083e-05,0.004885178785816946,0.06512601477472213,0.006982586713063477
703,8.350235829229602e-05,0.005243476794122347,0.07474847891249059,0.00913796248035059
704,5.6767321889000176e-05,0.0044191630946600596,0.0764878932718025,0.007534409193095341
705,5.071331574256167e-05,0.004817686395761616,0.07386272206063982,0.00712132822881809
706,4.4138081032145996e-05,0.004873142739349803,0.05801309905070973,0.006643649677108631
707,4.602157844839582e-05,0.004287931814599272,0.04305892713360038,0.006783920580932218
708,5.393442131292086e-05,0.003928944777133393,0.061497725724697805,0.007344005808339253
709,6.73088796596453e-05,0.005123860360446838,0.0629598500794275,0.008204198904198068
710,6.090915609227544e-05,0.0044800647844004,0.06652177092060277,0.007804431823795677
711,7.016084502264237e-05,0.005618160255530008,0.05119464058160528,0.008376207078543479
712,6.713794872741002e-05,0.0053307315456320595,0.05320398538451565,0.008193774998583344
713,7.317650340445968e-05,0.005214466137966595,0.07338070021223775,0.008554326589770763
714,6.309353853392159e-05,0.0043904028880064104,0.0709871092420622,0.007943144121437122
715,3.793805040312386e-05,0.004000657097722267,0.06660792972064566,0.006159387177562687
716,5.532184255163866e-05,0.00483038642263686,0.06382875530888787,0.007437865456677611
717,5.176717149665268e-05,0.005220913458783467,0.046404368194061574,0.007194940687500634
718,6.709625283734483e-05,0.0046189363026197345,0.08002144834711267,0.008191230239551588
719,5.578084467598389e-05,0.004905936224274887,0.06531056228290355,0.007468657488195815
720,5.0206120538494456e-05,0.00454234505091343,0.05693700215346875,0.0070856277448433595
721,4.877498371973628e-05,0.005114671122989775,0.05805713117547873,0.006983908914049197
722,5.8542279037080486e-05,0.00483434775130356,0.06628066400505173,0.0076512926383115205
723,4.9256488275257036e-05,0.004140159469697157,0.07232203311983287,0.007018296679056592
724,4.131764343408821e-05,0.004465820330659303,0.04526966777468733,0.006427880166438054
725,5.3375432788548566e-05,0.004998106099374647,0.05301858388833347,0.00730584921747966
726,6.128179393089277e-05,0.004795964723445603,0.06977382563159362,0.007828268897456992
727,5.249801903722015e-05,0.0043932084497715455,0.06809584570478933,0.007245551672386284
728,5.334460495569089e-05,0.00476680654637078,0.059851682541351536,0.007303739107860451
729,3.793057997072752e-05,0.004067004135222614,0.04295764474313701,0.00643263666885676
730,4.309796960098938e-05,0.004418394175668131,0.06667062959868897,0.006564904386279295
731,5.5738015804600745e-05,0.004872495577051526,0.05750456646452062,0.007465789697319388
732,5.737592247558094e-05,0.005489010825756312,0.055341573043226955,0.007574689595988766
733,5.236562308832897e-05,0.004580919022260318,0.06685083973155459,0.007236409543988525
734,5.456603489307549e-05,0.004782696111497165,0.061128423929521336,0.00738688262348029
735,4.776925539777257e-05,0.0043188479785843965,0.06467023214273548,0.006911530611794478
736,5.459693496174064e-05,0.003836755351466945,0.05520032970801947,0.007388973877456874
737,5.8879415640616315e-05,0.0037412762326827797,0.08368913290392133,0.0076732923599075785
738,6.495216238224575e-05,0.004841015098014901,0.06093526252405135,0.008059290439129556
739,5.147581668936189e-05,0.005135795100532961,0.05832703484298074,0.007174664918263528
740,5.8400135067649485e-05,0.00510258094190191,0.06122963367796386,0.007641998107016843
741,5.6549241509267924e-05,0.004542145790910235,0.060524150008414074,0.007519922972296133
742,4.503667572124225e-05,0.004758730157222385,0.058236368466216604,0.006710937022595431
743,5.026395812285883e-05,0.004906055090940769,0.05536646745902646,0.00708970790109569
744,5.4722990392153205e-05,0.005009528154565481,0.05861790292088065,0.007397498928161638
745,6.317810498723917e-05,0.004569281993510948,0.0627858681226463,0.00794846557438846
746,6.012609345653168e-05,0.004126187151403959,0.07553784993878565,0.007754101718221862
747,4.754180955149595e-05,0.00461717497261121,0.0650791028987146,0.0068950568925495994
748,7.886320044558482e-05,0.006299625387879423,0.057185720829451725,0.008880495506759989
749,6.971680156249595e-05,0.004584194146692531,0.08316673829078125,0.008349658769224968
750,7.572389800651917e-05,0.004913718074011859,0.07109520998165841,0.008701947943220439
751,3.529241515924921e-05,0.003972575223515464,0.053524265872276766,0.005940741970431718
752,6.80260078683761e-05,0.004901752649261335,0.05684379005249074,0.008247788059132928
753,4.520850989483253e-05,0.003777287039295559,0.08091357434829982,0.006723727381061217
754,6.671091953427686e-05,0.005117730663343091,0.06269147493271188,0.008167675283351855
755,4.534568897626016e-05,0.0038529437450425356,0.06409482722362814,0.006733920772941985
756,6.64301166106039e-05,0.004851440737383756,0.05812007887189585,0.008150467263329362
757,6.64260611087614e-05,0.00373600950910277,0.07129729994705486,0.008150218470001944
758,6.0051639311566175e-05,0.004929604609827251,0.06220362050274497,0.00774929927874553
759,5.023289373651944e-05,0.004704272940292578,0.05820061722129566,0.00708751675387926
760,6.061586649615216e-05,0.004815700167153257,0.06920775896269538,0.00778561921083682
761,5.442205096244475e-05,0.004754641988628678,0.05570441389120351,0.007377130266061739
762,5.086904631553664e-05,0.0043662335352520985,0.0660718977857333,0.007132253943567653
763,5.513205080896859e-05,0.003847145622835076,0.07113652782997448,0.007425096013451145
764,6.997875008857181e-05,0.005515746696591817,0.06487243073829574,0.008365330243844015
765,4.352490126251059e-05,0.003834881679737009,0.06183997691252552,0.006597340468894265
766,5.572610756655074e-05,0.0042133741448910226,0.05699308968498151,0.0074649921343930715
767,5.566745774754976e-05,0.005018865837138065,0.06867050682719311,0.007461062776009148
768,6.970935067052557e-05,0.00456074727910061,0.08070038978703398,0.008349212577873737
769,7.009888697589259e-05,0.004558799375192747,0.07101940623364467,0.00837250780685763
770,5.712353774802279e-05,0.005010518919823005,0.07628994587289825,0.007558011494303397
771,6.374729739970675e-05,0.005135239584565553,0.05399960359249434,0.007984190466146611
772,4.947319649082625e-05,0.004641016167942847,0.054449016378280035,0.007033718539352147
773,5.6519661137119334e-05,0.004854786008875792,0.06877597838306115,0.007517955914816147
774,6.942106993337104e-05,0.006073044437138502,0.04964281616270494,0.008331930744633608
775,6.806681645092612e-05,0.005215622342268568,0.07101476787712802,0.008250261598938893
776,3.552551599145904e-05,0.003869540825700701,0.07034193692294988,0.005960328513719571
777,6.679035459532217e-05,0.005361773453302368,0.058516721704504615,0.00817253660715701
778,6.022087576801384e-05,0.00492551425592913,0.07522898852779769,0.007760211064656262
779,4.9749847256796427e-05,0.004482294105413363,0.061689290348951875,0.007053357162145981
780,7.596087462724323e-05,0.005525691647405505,0.05965171590979235,0.008715553604174713
781,5.71408593046211e-05,0.0050945115728733385,0.05657890213823524,0.007559157314451181
782,7.17806772439901e-05,0.004519318195690918,0.0608284882686938,0.008472347799989687
783,6.556912061968829e-05,0.0040483519276814945,0.06792793309993561,0.008097476188275447
784,5.461398590257996e-05,0.0045303900281357615,0.04664788721049207,0.007390127597178524
785,6.910737156276148e-05,0.005445005503035177,0.053055717392622714,0.008313084359175082
786,5.724640039775724e-05,0.004983445050544219,0.05366884158040497,0.007566135103060015
787,7.886981947775237e-05,0.0054327963903718435,0.06644480847462653,0.00888086817139812
788,5.344193442587768e-05,0.004726455053346046,0.08061975030683088,0.007310399060644861
789,7.784654183570656e-05,0.004899712278536446,0.07689377923626761,0.008823068731212833
790,5.8829365766227915e-05,0.004908182287243109,0.06555078250903401,0.007670030362796972
791,6.149782832282816e-05,0.004809870971225569,0.06579452124585838,0.007842055108377372
792,5.501324258099142e-05,0.004732796165261062,0.05727230112535758,0.007417091247988719
793,5.516620347439249e-05,0.004627401829837739,0.06887564361014276,0.007427395470445336
794,7.026556334663141e-05,0.005093706849754331,0.06724476628474418,0.008382455687126002
795,4.786665559293867e-05,0.004773222775747205,0.05399226266590018,0.006918573233907302
796,5.3645459755846253e-05,0.0047288661263390356,0.07085935480710193,0.007324306093811613
797,5.492750999751037e-05,0.005047271690810141,0.05567226706582497,0.00741130960070553
798,5.669459412031132e-05,0.004875256485981484,0.055154214764762566,0.007529581271246827
799,5.4758395576506216e-05,0.00486696806780299,0.04590568771238995,0.0073998915922130655
800,6.0917690543433775e-05,0.004780005938687397,0.07328047543801208,0.007804978574181556
801,5.141860590910145e-05,0.0047667417372034716,0.07462706878635306,0.007170676809695227
802,5.699712037595011e-05,0.004959188184244431,0.06941518422453963,0.00754964372510049
803,8.297122324615209e-05,0.005774264656559204,0.07797765110160082,0.009108854112683506
804,5.170345361426509e-05,0.00448001367844719,0.05205978307045123,0.0071905113597201566
805,6.704691414700947e-05,0.005341801574896133,0.05713868896971619,0.008188218008028915
806,6.745321234789425e-05,0.004596833661634743,0.07274952400749468,0.008212990463156147
807,6.153127603216393e-05,0.004710809633054998,0.06763168262299679,0.00784418740419704
808,4.713670604036701e-05,0.004212515588485457,0.052803586989776496,0.006865617673623141
809,5.924500186271815e-05,0.003936877743967032,0.07865801186030641,0.007697077488418406
810,6.232472234211937e-05,0.004990934652350299,0.05911686268102612,0.007894600834881945
811,6.49716169360312e-05,0.005141391799341384,0.05441106079459318,0.008060497313195424
812,8.757150695052976e-05,0.004319008342343171,0.0890952218928387,0.009357964893636286
813,4.201484047276118e-05,0.0036579719247393254,0.06201924119465385,0.006481885564614729
814,5.81639300888313e-05,0.005072292790847027,0.0625154710355984,0.0076265280494358075
815,6.273215733263348e-05,0.005108245510552697,0.06415219639929304,0.007920363459629428
816,5.4595329131061985e-05,0.004758354660659139,0.06188441842861403,0.0073888652126738695
817,4.187209942258701e-05,0.003872131689683338,0.0678580319569706,0.006470865430727694
818,5.595521973415458e-05,0.004707629933666955,0.06727818633069038,0.007480322167804962
819,7.481023772106372e-05,0.004298774769624858,0.06264734053872978,0.008649291168706436
820,6.630883614644818e-05,0.005550516724299102,0.07055169949238405,0.008143023771698545
821,6.950107777396125e-05,0.005444587275179343,0.05248810155155548,0.008336730640602539
822,4.3309181318249126e-05,0.0039458491880655375,0.06558884432146073,0.006580971153123875
823,7.691024145021007e-05,0.005221367570045064,0.054664589644997985,0.008769848428006592
824,8.465542181282678e-05,0.00624647438561876,0.06853875657284636,0.009200838103826523
825,6.422602336669078e-05,0.005542944496278615,0.06680217569444324,0.008014114010088107
826,5.649173758075633e-05,0.005227619685656527,0.045516508803189915,0.007516098561139006
827,6.52744595259096e-05,0.004951592194398719,0.05905664859167592,0.008079261075488847
828,5.3122070036954024e-05,0.004402570784174877,0.05529355865718433,0.007288488871978461
829,8.033416652951748e-05,0.0049121047076254145,0.07277830809327845,0.008962932920061199
830,7.093391662485973e-05,0.005836146534929739,0.05221630263287991,0.008422227533429581
831,5.596068990512866e-05,0.00531078065630989,0.06066454561655554,0.007480687796261
832,7.114241650672961e-05,0.0040576721612884175,0.07960076694327992,0.008434596404495523
833,5.213606610900461e-05,0.0042727231245810755,0.06842221475927412,0.007220530874458185
834,5.7563378515995766e-05,0.004941397374524547,0.049575922899726343,0.0075870533486983634
835,5.626609118942936e-05,0.00411539735288292,0.07289900635477853,0.007501072669253947
836,5.049036182823534e-05,0.004313787092110031,0.06287330391712143,0.007105657030017343
837,6.1912107564546e-05,0.004979644625202027,0.06953678366336069,0.007868424719379706
838,6.72493316113551e-05,0.00479473939098911,0.060473634014767796,0.008200568980952134
839,5.486358926138388e-05,0.004685916470533119,0.04786412468898904,0.007406995967420493
840,5.908780280358564e-05,0.004024658645542137,0.05737160756711024,0.007686859098720707
841,6.978748199912704e-05,0.005533956226518963,0.06415744019888803,0.00835389023145064
842,5.823528540414928e-05,0.004876611821694903,0.06513251092590533,0.00763120471512519
843,7.104666004381798e-05,0.004543699909541195,0.05697329945909857,0.008428918082637753
844,6.3139894111163e-05,0.004924550619988763,0.054928916619688906,0.007946061547154187
845,5.511869853150817e-05,0.004613778117369974,0.06656682435535544,0.007424196827368448
846,3.689426019651639e-05,0.0034906161709228343,0.057456672330510106,0.006074064553206201
847,7.792118817407679e-05,0.00549220276365542,0.06953774552950742,0.008827297897662472
848,5.66919095275784e-05,0.0048159188305272925,0.07675007050945126,0.00752940299941355
849,6.20931717039728e-05,0.005571550206098692,0.06324031637166216,0.007879922062049368
850,6.18512314964678e-05,0.005523641418361636,0.058100736737715986,0.007864555390895754
851,4.6302315115205385e-05,0.004190369260849923,0.04761855495943845,0.0068045804510789044
852,4.6680510919054684e-05,0.004110495442560733,0.07698332588904133,0.006832313731017796
853,5.676325450623251e-05,0.0048161673081706675,0.056177673736236944,0.007534139267775204
854,8.731397689499175e-05,0.00526718158181406,0.08466165421193672,0.00934419482325743
855,8.047938786990564e-05,0.005969926522901,0.06683108884017752,0.00897103047982252
856,4.348488867850702e-05,0.004434809847043489,0.05995292841453459,0.0065943072933027915
857,4.488861017700359e-05,0.003871808106585193,0.0640180831052759,0.006699896281063104
858,6.248348011331968e-05,0.0038544674723668053,0.08440004047493327,0.007904649271999301
859,6.081957756844724e-05,0.004796456828114599,0.07087230071994988,0.007798690759893392
860,5.137211567534649e-05,0.004148485162175427,0.060875557703032435,0.007167434385841712
861,6.362797301971163e-05,0.004600020514180881,0.07256958813686265,0.007976714425107072
862,8.076798081757322e-05,0.004936808206895674,0.07279922383157622,0.008987100801569592
863,4.9813730195675984e-05,0.003888635474816868,0.06870852279698791,0.007057884257741521
864,5.40961587852306e-05,0.00473291787401765,0.05883925796092626,0.007355009094843462
865,6.268361503996759e-05,0.004158895776318712,0.07704779109390003,0.007917298468541343
866,8.008014030231426e-05,0.005284374269489668,0.07453515515860418,0.00894875076769455
867,5.662541799363663e-05,0.004518385670817204,0.061267921170790274,0.0075249862454117595
868,4.3561645294317274e-05,0.004107875614945314,0.054864632348716746,0.006600124642331892
869,4.659285976657185e-05,0.004168114289655808,0.06693732872572822,0.006825896261046712
870,7.271074079999932e-05,0.005242613655310989,0.05823304055205791,0.00852705932898316
871,5.20449987300731e-05,0.003591009451010282,0.07653792532045678,0.0072142219767673
872,6.209362326019143e-05,0.004455587315237247,0.07472998773329076,0.007879950714324983
873,6.024145261642394e-05,0.005542403777372586,0.05708007555820549,0.007761536743224473
874,4.648162975248519e-05,0.004517551588449855,0.06044102401657003,0.006817743743533106
875,3.81854428246419e-05,0.0038444071086362816,0.06889183965225243,0.006179437096098776
876,6.513403913847477e-05,0.0041143531716244935,0.06775838323873984,0.008070566221677043
877,6.780860201146012e-05,0.0054932914664624095,0.06450760534275382,0.008234597865801297
878,6.42659184738958e-05,0.00510911927412956,0.06382657893866739,0.008016602676564134
879,7.425360298917107e-05,0.005617927896259004,0.06291983350362873,0.008617053033907278
880,7.65665630606617e-05,0.005288952791329474,0.06905643330052191,0.008750232171814677
881,7.589040006132422e-05,0.0051055969166123065,0.08352759636920482,0.00871150963159219
882,7.027905991439207e-05,0.004774346540839734,0.07057514357172678,0.008383260697031414
883,5.3061442961890095e-05,0.0036516598292329707,0.07575047452650363,0.007284328586897333
884,6.525724050006629e-05,0.005497158637664029,0.06484159765768976,0.00807819537397219
885,7.326158627774055e-05,0.004444221749438075,0.06889380855953542,0.008559298235120676
886,6.440977293220777e-05,0.00450887197441896,0.07008331629361297,0.008025569944384452
887,6.228926226477068e-05,0.0047820777040717055,0.05860290084069608,0.007892354671754838
888,6.882806899819413e-05,0.005425901840026597,0.05542460604914068,0.008296268377903012
889,4.775198346409414e-05,0.0035935219396690636,0.07012492413954141,0.00691028099747714
890,4.876360422568649e-05,0.004090137216152898,0.07357916976577705,0.006983094172763674
891,5.218743991579582e-05,0.0047677891938804826,0.0498503095366416,0.007224087479799476
892,6.036448174436555e-05,0.00497829033075131,0.059734096312783924,0.007769458265822968
893,6.399561815693658e-05,0.004391504075110585,0.09016350575248355,0.007999726130120725
894,4.082768046544604e-05,0.004036457607602128,0.06954694141119155,0.006389654174166673
895,4.956827933942087e-05,0.004119262726393409,0.06929650682681476,0.007040474368920061
896,6.216180909854847e-05,0.0051214842332141285,0.07057069155893592,0.007884276066865488
897,6.445465882618125e-05,0.004714846766965324,0.06775307020870613,0.008028365887662361
898,5.066721257992193e-05,0.004651615779068097,0.06690556092762945,0.007118090515013276
899,6.612557217233786e-05,0.004531707539240133,0.07027684805390111,0.008131763165042221
900,5.228137640653256e-05,0.0046945048994476435,0.06677314468820317,0.007230586173093594
901,5.359443132742049e-05,0.004773998239189141,0.050841070700596624,0.007320821765855263
902,5.9368901642420236e-05,0.0036523469826694934,0.07740402779116984,0.007705121779856555
903,5.691693708713161e-05,0.003722495986601125,0.07877604010925587,0.007544331453954772
904,4.3587632834213195e-05,0.004625350391677832,0.053792021421348535,0.00660209306464342
905,4.5873664565303625e-05,0.004067772539219022,0.06978902823413957,0.006773010007766353
906,3.246515102777525e-05,0.0037434701319443357,0.06585666284015002,0.005697819848659222
907,5.487540326503848e-05,0.0038494098310900737,0.06524772613393237,0.007407793414036189
908,4.483599447509688e-05,0.004681347043047549,0.04322091448322585,0.006695968524052097
909,7.719472399817831e-05,0.0047679014184782926,0.07166583845565455,0.008786052811028266
910,5.694540385953726e-05,0.0040262394288748705,0.07026170758032446,0.007546217851317107
911,6.153751161714714e-05,0.005292346989833508,0.05313584235136437,0.007844584859452199
912,7.107891432119123e-05,0.005622079001088981,0.04781829056122344,0.008430831176176556
913,5.9094906312892675e-05,0.00481090863350801,0.0718409845810064,0.0076873211402212396
914,6.796290349924073e-05,0.0054136612394280765,0.06345158305032778,0.008243961638632261
915,6.948848287226772e-05,0.005148262168398368,0.0693146635410633,0.008335975220228711
916,6.934042522020839e-05,0.0051345947174756094,0.050685894544723276,0.00832708984100737
917,6.055786773586722e-05,0.004282137498963435,0.06315440258510652,0.007781893582918388
918,6.31538737799217e-05,0.0044650636975088216,0.06868204644293571,0.007946941158705095
919,6.874929570401938e-05,0.005180301402984148,0.05479803445817444,0.008291519505134069
920,4.750035829110087e-05,0.004798502010130217,0.0634467716345819,0.006892050369164507
921,5.0351763123982035e-05,0.004778654391351665,0.06203841375363517,0.007095897626374103
922,6.094896770005007e-05,0.0052232561673576025,0.05545190246195908,0.007806981984099181
923,4.645988884064544e-05,0.0038708131371266614,0.056840449040419294,0.006816149121068697
924,6.008210897232872e-05,0.005278191585374015,0.053635172678786924,0.007751264991749929
925,6.892131429854998e-05,0.004576528164701508,0.08125253114074149,0.008301886189207191
926,4.62754012205728e-05,0.004325048287879476,0.06659140585565781,0.006802602532896702
927,4.705364521965117e-05,0.0045166684290392535,0.0596362371317003,0.0068595659643778395
928,6.159182732924294e-05,0.004506922705857469,0.06656450238659328,0.007848046083532042
929,4.41788123752669e-05,0.004664266464503417,0.05134268646705564,0.006646714404520971
930,6.942459443034286e-05,0.004989722010518595,0.05912241429032039,0.008332142247366055
931,6.68157400909345e-05,0.004773899239084062,0.07269074126030095,0.00817408955731058
932,5.3704999598479734e-05,0.004961932794553751,0.05318103792046425,0.007328369504772461
933,6.457663800085697e-05,0.004543692800428444,0.07707632810689136,0.008035959059182446
934,6.354786220925228e-05,0.004846741265285472,0.07177701571884931,0.007971691301678204
935,5.17671385199597e-05,0.004739903112573907,0.07493450539373914,0.00719493839584185
936,5.382356370901764e-05,0.0034133634745106213,0.062210700497188576,0.007336454437193586
937,5.228710130997567e-05,0.004172010732377528,0.055196546511927735,0.007230982043261845
938,6.118036446882358e-05,0.0047605440593899,0.06800427702849876,0.007821787805151888
939,7.235215914836003e-05,0.006036866148482996,0.053507692097916726,0.008506007238908235
940,8.988095595619566e-05,0.003970846557394458,0.0664755945429758,0.009480556732396818
941,4.6747296040967055e-05,0.004137559530532491,0.07574551333512813,0.006837199429661723
942,7.999504461645416e-05,0.0063537087062896114,0.07382278389223718,0.008943994891347687
943,4.8639858789243386e-05,0.004132650386317905,0.041445889899436095,0.006974228185917261
944,7.47363405575217e-05,0.004477798250647,0.06174786464740878,0.008645018250849512
945,7.73131140362158e-05,0.005276441435855141,0.06743375647291039,0.008792787614642755
946,4.006247251295227e-05,0.003905072842793345,0.0718698253934269,0.006329492279239433
947,5.316311627398703e-05,0.005047159256321547,0.05612092923143397,0.007291304154538244
948,6.33213920357522e-05,0.0055574743827831044,0.052742111111145684,0.007957473973300308
949,8.198616267701796e-05,0.005043012696037139,0.08609280006557818,0.009054621067555385
950,5.400625462946079e-05,0.004500819181064534,0.05887764767828357,0.007348894789657871
951,7.347463204471169e-05,0.005743210998907538,0.0600006848671768,0.008571734482863512
952,7.805237683834792e-05,0.005750199973064089,0.05294060607656603,0.008834725623263434
953,7.471208329499891e-05,0.005324295711986908,0.06861776112367583,0.00864361517508724
954,5.0041665283689904e-05,0.0052108668016850115,0.04234051411561346,0.007074013378817535
955,5.72951887059032e-05,0.003922308905565727,0.06614625282049857,0.007569358539922834
956,5.962891178789567e-05,0.004966929328575029,0.06975302116744331,0.00772197589920452
957,6.559939282088809e-05,0.005759129590418577,0.054637795919720844,0.008099345209391163
958,5.5769292279651695e-05,0.004302738585744609,0.07755497304704906,0.007467884056387826
959,4.557502894661596e-05,0.0046156816461410234,0.0556915560566984,0.006750928006327412
960,4.80202690456317e-05,0.0038871112400511473,0.06909738868538584,0.006929665868253053
961,6.323549772795754e-05,0.0053455356364000015,0.060010602851405026,0.00795207505799317
962,5.2357274590936625e-05,0.004691758936880153,0.04619751493069035,0.0072358326812424385
963,6.490342910196242e-05,0.004829015893219904,0.07621277920573544,0.008056266449290379
964,7.629299182263928e-05,0.005886777941605387,0.05629431738979829,0.008734585955993465
965,6.845407472492638e-05,0.004628164569434332,0.07146366299316975,0.008273697766109537
966,6.261172632255465e-05,0.004447970695786321,0.07983712754928263,0.007912757188398614
967,7.137874260243963e-05,0.005542113908973727,0.06627630062344059,0.00844859411987811
968,6.410708867626218e-05,0.00567404594762411,0.04662834211979616,0.008006690244805378
969,3.955793031970892e-05,0.00334514482520253,0.0653624360462266,0.006289509545243454
970,7.185667345496082e-05,0.005312401373473233,0.06226422695165379,0.008476831569340045
971,5.170718397085366e-05,0.00476188992570725,0.05656487260246723,0.007190770749429654
972,6.292782764730322e-05,0.004429398871604344,0.07999123517879347,0.007932706199482165
973,6.221044499689873e-05,0.0050912457036904725,0.0668292120445213,0.007887359824231296
974,5.460423875626271e-05,0.004853355713987188,0.05753987266047175,0.00738946809697843
975,7.187233186385497e-05,0.0052473929778494325,0.06695008998706786,0.008477755119361172
976,5.3204694724788637e-05,0.004089216989662968,0.07192688395203217,0.007294154832795097
977,3.9725149261373176e-05,0.0044962696209435455,0.053366251217314975,0.00630278900657263
978,6.267660324450553e-05,0.005015824780267851,0.052632649018402144,0.007916855641257133
979,6.178796588827398e-05,0.00507176333461844,0.05870859931287287,0.007860532163172758
980,7.681045178569548e-05,0.005348560829761874,0.07300889466453675,0.008764157220503013
981,5.709086298448205e-05,0.005274131962150083,0.054434446519854185,0.007555849587206039
982,6.363536211733393e-05,0.0054103052366083265,0.06216006007200847,0.007977177578400378
983,5.304668986877509e-05,0.0047690417336895465,0.07120711349098352,0.00728331585672176
984,7.590652551717485e-05,0.00438356525915623,0.08140360722674789,0.008712435108347944
985,4.8343150197707686e-05,0.0044680627692215615,0.06549313412989899,0.006952923859622457
986,6.759908021098307e-05,0.005111080491832172,0.06926595272221348,0.008221865981088632
987,6.397575477881112e-05,0.0048938316817727315,0.06444698524893466,0.007998484530135104
988,5.623492006603783e-05,0.005265215107524155,0.054688695302181234,0.00749899460368105
989,6.446373342559976e-05,0.0052534434628403615,0.06640385108491476,0.008028931026332151
990,6.022382697939797e-05,0.0038424961971822305,0.06705730916150454,0.007760401212527457
991,4.186727985896701e-05,0.003782272234211544,0.05698192159371318,0.006470493015139301
992,4.844088145553996e-05,0.003887600885786325,0.07057844284113912,0.006959948380235254
993,7.04519546759024e-05,0.0056825895021397664,0.06525430695660939,0.008393566266844026
994,7.35552000527868e-05,0.005801173607617144,0.056392338627491045,0.008576432827976092
995,4.901602694847044e-05,0.004074117590903614,0.0552506530107304,0.007001144688439892
996,6.510678401357663e-05,0.0046801858255260545,0.057316279708396145,0.00806887749402456
997,5.377350909939959e-05,0.004928730321985697,0.07301267836713556,0.00733304228130448
998,5.775833263495612e-05,0.0038919729212581896,0.07213779616244409,0.0075998903041396395
999,6.790268725594787e-05,0.005169892864915846,0.07114708392343738,0.008240308686933243
1000,2.7329517971400823e-05,0.0026578842407533956,0.04460819210683803,0.006036502074479948
1001,8.533704656508896e-05,0.00559373813600357,0.06984286980761478,0.009237805289412013
1002,5.117233582010718e-05,0.004671287461953533,0.06502979988656388,0.007153484173471487
1003,5.510616965769688e-05,0.00519556506350186,0.05643310149234426,0.007423352992933601
1004,4.0551485583392755e-05,0.0034967778980828854,0.05948837818917885,0.006368004835377631
1005,5.792634290882673e-05,0.004868512034356712,0.06487754125391088,0.007610935744626053
1006,7.516376987273494e-05,0.005162862682132247,0.0784221748684395,0.008669704139861654
1007,4.9640674936909644e-05,0.0041550997533697015,0.06255969795768312,0.007045613879351391
1008,5.6248381123995876e-05,0.003734716672550572,0.08166399354826259,0.007499892074156504
1009,5.2427479019845957e-05,0.004440632186950963,0.06810410131289846,0.007240682220609183
1010,7.110097520065593e-05,0.005161233945371824,0.08061340110678383,0.008432139420138571
1011,6.58117248186828e-05,0.0032946380757251604,0.07428936715425305,0.008112442592627809
1012,5.677081060275809e-05,0.004203491199798598,0.07119266497483812,0.007534640708272505
1013,5.5683346191404396e-05,0.00491713698055513,0.06525015239941645,0.007462127457461689
1014,7.061551892099317e-05,0.004573230298628363,0.07573288802240041,0.008403304047872621
1015,4.878323624106842e-05,0.004119627450371008,0.06794190591500682,0.006984499713012232
1016,6.223777562824385e-05,0.0050369292315080045,0.06629722291069196,0.00788909219291062
1017,6.741612549582648e-05,0.004444522457229145,0.0729977189452522,0.008210732336145516
1018,3.929308331666083e-05,0.0038223855049407916,0.07124819500758672,0.006268419523026562
1019,5.849117941451846e-05,0.004775214621159421,0.0643246576924445,0.0076479526289405025
1020,8.139136320382721e-05,0.0056088881105775335,0.08130921978588157,0.00902171620058107
1021,5.383397544264392e-05,0.0044962911402030075,0.0594750445438641,0.007337163991805259
1022,6.46481388213654e-05,0.004405801964881638,0.06387301409375556,0.00804040663283674
1023,3.946722232697151e-05,0.0038612576474271244,0.049045461550936365,0.006282294352143254
1024,3.405455556878784e-05,0.003390209466728959,0.07462006589198555,0.005835628121186914
1025,4.462662723770063e-05,0.004730379621294931,0.05969527836662536,0.006680316402514182
1026,4.732000050795018e-05,0.0042733308700616006,0.0620990576991165,0.006878953445688503
1027,5.335874759261023e-05,0.00417130538442215,0.06171694359852786,0.007304707221553101
1028,6.09457833335992e-05,0.00478348100169661,0.07465411380287534,0.007806778037935939
1029,5.654288094143401e-05,0.004171734442328533,0.06575592804776415,0.007519500045976027
1030,5.816975329227074e-05,0.004546888993237015,0.060613834864664984,0.0076269098127793805
1031,6.062927077855066e-05,0.004150553761727218,0.08336138489925005,0.00778647999923905
1032,4.4194818456350156e-05,0.0035982411543746193,0.07539871948251076,0.00664791835512061
1033,6.587711521689294e-05,0.0035486599665084414,0.06854814111950441,0.008116471845382832
1034,5.161723700070924e-05,0.004025330205763717,0.05831299987489302,0.007184513692708014
1035,5.96645378427204e-05,0.004943040922136388,0.056722158611146156,0.00772428235130745
1036,6.791240361760482e-05,0.005188567329591067,0.07224666370875132,0.008240898228810026
1037,8.201989835707699e-05,0.004891347172312713,0.07658351399906715,0.009056483774461025
1038,7.870664632745378e-05,0.005451049427797377,0.06685179840407951,0.008871676635645191
1039,6.280769915924845e-05,0.00517934955577899,0.06480951857179021,0.007925130860701799
1040,5.874420019193567e-05,0.004280849067399483,0.06992469701095382,0.007664476511278204
1041,7.383713609816615e-05,0.005213463304847896,0.06883884066737611,0.008592853780797504
1042,6.32348455933022e-05,0.005107787531346602,0.06185311466157922,0.007952034053831866
1043,6.977532875569097e-05,0.005642598398316248,0.054727040996778165,0.008353162799544265
1044,7.414351569247796e-05,0.003985879615445987,0.07130533644442272,0.008610662906680144
1045,4.9834634192226225e-05,0.004379437062396087,0.06428700120109543,0.007059364999220936
1046,6.608652422644949e-05,0.0041084166595930696,0.06730095999686592,0.008129361858500899
1047,6.279527677248507e-05,0.004528164252818343,0.07654475746230549,0.007924347088087737
1048,5.9903460778049084e-05,0.005093045118364798,0.06920171634651284,0.007739732603782119
1049,6.772330289849321e-05,0.0038852824716066508,0.07792683863553052,0.008229416923360558
1050,6.657788067833043e-05,0.004652943868003487,0.07545573990599141,0.008159526988639127
1051,8.307136094834225e-05,0.005710461794358016,0.06099332085632936,0.009114349178539417
1052,5.569448956480349e-05,0.004445888147800609,0.07329967642250024,0.007462874082068051
1053,5.094975485137703e-05,0.004069610950460141,0.05880568013539067,0.007137909697619921
1054,6.282274972512062e-05,0.004946297231577058,0.06986081320020954,0.007926080350660118
1055,4.864348170754864e-05,0.0045394331139422695,0.061788928018684075,0.006974487917227188
1056,4.799747855987342e-05,0.004259165564053819,0.06557446624521157,0.006928021258618728
1057,6.912121131910412e-05,0.005115544089132247,0.06527929260469101,0.00831391672553337
1058,5.139994951161109e-05,0.0045738889010937785,0.07372803611237178,0.007169375810460116
1059,3.307002256305112e-05,0.003470789865417107,0.058275127678426575,0.005750654098713538
1060,5.069998686120118e-05,0.00509368503315027,0.05718991014483654,0.007120392324949549
1061,4.7446038089542255e-05,0.004769390580672358,0.056387712998407835,0.006888108455123359
1062,7.454627144286364e-05,0.005584198931583008,0.06396859099292004,0.008634018267461723
1063,3.913310426375193e-05,0.003637602860326807,0.0720739141597897,0.006255645791103566
1064,7.343421007018944e-05,0.005031186061888322,0.0629759817631168,0.008569376294117826
1065,8.095489511154165e-05,0.004520054911490496,0.09050299661910355,0.008997493823923465
1066,6.092150332499691e-05,0.004238449058847016,0.0605524682197367,0.007805222823532751
1067,7.389265286772103e-05,0.005341793113030386,0.060159812577698535,0.008596083577287994
1068,6.972946128772465e-05,0.0046688432264666326,0.0621810075317728,0.008350416833172112
1069,4.6328552711598414e-05,0.003476217244719816,0.07485827072803541,0.006806508114415045
1070,7.377865556181672e-05,0.005694126487523886,0.06106022989090665,0.008589450247938826
1071,5.873354135145236e-05,0.004845803725147933,0.07450142281949201,0.00766378113932359
1072,6.494735213908911e-05,0.004931758829747561,0.05937083864004711,0.00805899200515107
1073,7.666680903996505e-05,0.005684123944561967,0.0657888651160321,0.00875595848779356
1074,7.633175660820015e-05,0.006777466625205993,0.05181615082192392,0.008736804713864179
1075,8.249370868527321e-05,0.004950243384932395,0.0628804925153581,0.00908260473021218
1076,7.015663610697452e-05,0.0049750089336103,0.06934990322390178,0.008375955832439295
1077,7.799258855632386e-05,0.004733331840688575,0.08133875849552785,0.008831341265986932
1078,4.8637752744913814e-05,0.004122673641330081,0.0669447852635301,0.006974077196655729
1079,8.96595151620362e-05,0.006065036017813085,0.060266162836542736,0.009468870849369298
1080,6.128634723631846e-05,0.005426247032078227,0.055834626074052096,0.007828559716596531
1081,3.9620420738595314e-05,0.0032574987582627444,0.0679680172172592,0.006294475414090915
1082,7.986062338702649e-05,0.005859567070712149,0.06901803201021717,0.008936477123958059
1083,6.395552053844418e-05,0.00404698276577224,0.05955372551349836,0.007997219550471517
1084,7.157197915953324e-05,0.005540117199511551,0.052602182939008646,0.00846002240892615
1085,4.218287325905119e-05,0.003841216550916758,0.06914475829419153,0.006494834351933129
1086,5.4174119260674524e-05,0.0043433250696793685,0.06098236194295503,0.007360307008588297
1087,5.166249870597947e-05,0.004997832780989185,0.049825304663965536,0.007187662951612208
1088,7.73855103134001e-05,0.004932263070821349,0.0775394619040104,0.008796903450271553
1089,6.114031396215663e-05,0.004383438006606516,0.07654090810795167,0.007819227197246283
1090,6.889068798758346e-05,0.004874069155845418,0.06757754929532545,0.008300041444931655
1091,6.455614670767842e-05,0.004325683632705446,0.06471553699160992,0.008034683983062296
1092,6.218300982094787e-05,0.005028811712525809,0.06946631682875415,0.00788562044616322
1093,6.408354116810423e-05,0.004971050109523538,0.07949917988163113,0.008005219620229265
1094,7.62645858292423e-05,0.005202701243517947,0.0753007771019858,0.008732959740502744
1095,5.4002702924065236e-05,0.004762965445416843,0.07419397561797858,0.007348653136736329
1096,5.0635548193556046e-05,0.0040021546155514015,0.07090705426345911,0.007115865948256444
1097,6.265605680942524e-05,0.004697100459714435,0.059596416797891294,0.007915557896284056
1098,6.186515294779351e-05,0.004688589319200746,0.08142347679671325,0.007865440416645024
1099,7.83761444229565e-05,0.004900876265706706,0.0659795792407456,0.00885303023958214
1100,7.142632748336401e-05,0.00625264691319846,0.05485552067717564,0.008451409792653743
1101,5.298470146550161e-05,0.0042501886058985945,0.06478669993017228,0.00727905910578429
1102,7.153725372237897e-05,0.005535846758130134,0.061476257114332356,0.008457969834563043
1103,3.582786946324727e-05,0.0037609452489852165,0.06003625006190505,0.0059856386011224475
1104,4.764170174636479e-05,0.0042978374420994505,0.06941363709346882,0.0069022968457148
1105,5.1100672762280715e-05,0.0038637398806568636,0.09197412705491592,0.007148473456779465
1106,7.50123720158545e-05,0.004540240273833232,0.0659297856894554,0.008660968307057487
1107,7.71301659710363e-05,0.005058903194051536,0.08152113959828,0.008782378150081862
1108,2.9742044829879054e-05,0.003113904274532577,0.06570317887802091,0.00545362675931153
1109,4.675660432571383e-05,0.004136726353031739,0.05968545829834726,0.006837880104660609
1110,6.129934149421216e-05,0.004832563115176674,0.06420346714797742,0.007829389599081898
1111,6.400405768342236e-05,0.005372422177708987,0.06524863984383256,0.008000253601194258
1112,5.2228430870769465e-05,0.005045986298058295,0.055519812209138486,0.007226924025529076
1113,5.3921888348075284e-05,0.004685458562868266,0.07005155186974132,0.007343152480241353
1114,6.252576563448504e-05,0.005652957645577882,0.05700171918284491,0.007907323544315377
1115,7.464191493986461e-05,0.005195865397376601,0.08143980305759624,0.008639555251276762
1116,7.111067837223449e-05,0.005143360301017298,0.07470826109737456,0.008432714768817564
1117,5.7468770434498614e-05,0.0036594257361142273,0.0703321514858235,0.007580815947805229
1118,8.522207781956114e-05,0.005644581736262915,0.07014052555508754,0.009231580461630619
1119,6.886144245601858e-05,0.005084478544721695,0.055078307950376715,0.008298279487702115
1120,5.5778762740318876e-05,0.004651538086709579,0.07054966268685714,0.007468518108722652
1121,5.2595585969222926e-05,0.0044952690587725325,0.055615909890988524,0.007252281432020047
1122,6.755337868101776e-05,0.004680751401330921,0.0648209911932387,0.008219086243678024
1123,6.621710090025407e-05,0.0055898182920711675,0.05666249169657234,0.008137389071456103
1124,5.805705069908982e-05,0.0051069305200829905,0.0706804446631355,0.007619517747147081
1125,4.8315749276731894e-05,0.004386534197527923,0.04922974493848309,0.0069509531200211356
1126,5.8554422726148156e-05,0.0037516448584563582,0.07149449209870973,0.007652086168238543
1127,6.91566816138673e-05,0.004725726943211151,0.07793377186462447,0.008316049639935203
1128,7.805710265283644e-05,0.005062093537938866,0.05834449800076813,0.008834993075992526
1129,7.019824977447448e-05,0.004533190009307433,0.07852092502125707,0.008378439578732648
1130,4.497489097080719e-05,0.0044518775900731725,0.0671946035147899,0.006706332154822549
1131,5.929217691512074e-05,0.004760726415617156,0.06209680598508038,0.007700141356827139
1132,6.399484417985961e-05,0.005060364723754101,0.05991577586398744,0.007999677754751064
1133,5.491795648133113e-05,0.004414450823963897,0.05823943614522875,0.007410665049867681
1134,7.294611612554529e-05,0.004194519803073943,0.08063791474229687,0.00854084984796861
1135,6.242376797829144e-05,0.004675301847491517,0.06031450079375489,0.007900871342978006
1136,5.815637311524528e-05,0.0047120822529990655,0.06177116100310265,0.007626032593376759
1137,7.183039735959913e-05,0.0054100622893742765,0.057880552349771186,0.008475281550461832
1138,6.696714697732721e-05,0.004568118447693854,0.06237166080054357,0.008183345708041835
1139,7.335607928110767e-05,0.005086025323608588,0.06600928795587913,0.008564816360034047
1140,3.8231835196581376e-05,0.0038664730508694884,0.05179319299237539,0.00618318972671719
1141,7.167213214409776e-05,0.00450390396214941,0.0845588312835086,0.008465939531091456
1142,7.807436850860808e-05,0.0052891517206959575,0.06458180643128264,0.008835970150957264
1143,6.145866576511245e-05,0.004986093895591153,0.07524622053467023,0.007839557753158786
1144,6.165989124765226e-05,0.004344675270626803,0.06535371317779415,0.007852381246962711
1145,7.121677827628988e-05,0.0057257725260068055,0.05594407159969861,0.008439003393546496
1146,6.503954052354037e-05,0.00436459001091848,0.06413075914173416,0.008064709574655467
1147,6.913526231729952e-05,0.004865992523128399,0.06604615103232259,0.00831476171139612
1148,6.102799934333989e-05,0.005034663687599728,0.06458902830053415,0.007812041944545558
1149,5.203630073221307e-05,0.004010190994395353,0.06853138512042545,0.0072136191147171395
1150,3.681650790000026e-05,0.003919607951464595,0.05581052448945201,0.0060676608260515075
1151,6.162752310571049e-05,0.0046590510868612395,0.07730287668277303,0.007850319936519136
1152,6.307284773813979e-05,0.004364458931789303,0.07230529655833418,0.007941841583545965
1153,6.943341537663986e-05,0.005660747457425177,0.06033924120990086,0.00833267156298864
1154,5.033449805791528e-05,0.003909992471768762,0.0621816635037995,0.007094680969424546
1155,7.299847116229026e-05,0.0044635942054594875,0.07433227075841309,0.008543914276389345
1156,5.0026704751266024e-05,0.004083529505697557,0.07008172310678162,0.007072955870869371
1157,6.024209684704646e-05,0.004455089132429824,0.08841049858760897,0.007761578244599862
1158,5.76467595568077e-05,0.004383090342156358,0.07868800448495783,0.007592546315749899
1159,7.053044810676196e-05,0.0048134229065451275,0.06981606717574618,0.008398240774517072
1160,5.1217875233102194e-05,0.004467890534378261,0.0736359920524512,0.00715666648888305
1161,6.766866150744411e-05,0.005680226142460832,0.07170977754477192,0.008226096371149792
1162,6.681583123164205e-05,0.0053434048004709234,0.07611404389466347,0.00817409513228478
1163,5.733507229321262e-05,0.004940937024580976,0.06344696935487182,0.007571992623689759
1164,5.876807801288547e-05,0.004978677550218049,0.06084686409820517,0.0076660340472035965
1165,8.342219966595753e-05,0.005605300363371227,0.05877146419003809,0.009133575404295788
1166,7.735544572266213e-05,0.0038985299836032487,0.08468896232245449,0.008795194467586327
1167,7.300311242601222e-05,0.005296200905072467,0.06416973167948514,0.00854418588433161
1168,7.161145763059893e-05,0.004408820757616333,0.07430940807838482,0.008462355324057137
1169,6.074400435713829e-05,0.004790984101069737,0.07384171808079021,0.007793844003900624
1170,4.685621827855472e-05,0.004228789363939991,0.049607399880978065,0.0068451602083920435
1171,4.308450232467657e-05,0.004059505174688762,0.05353860583989567,0.006563878603743069
1172,6.757141440745225e-05,0.0046887903084245845,0.07217086990258004,0.00822018335607254
1173,5.4157066614698854e-05,0.004897820020795976,0.06374523276537478,0.007359148497937674
1174,5.472562558401531e-05,0.004437524449317294,0.10554904634463869,0.007397677039720983
1175,6.332531545378204e-05,0.004322777515711263,0.08147766138460355,0.007957720493569846
1176,6.216289237836146e-05,0.0047159933130475245,0.06476511294751164,0.007884344765315689
1177,5.328329101236827e-05,0.0043307400664827226,0.061943150001389335,0.00729954046583535
1178,5.0870183535592675e-05,0.004086392794530335,0.06440021090947923,0.007132333666871759
1179,7.452964971518658e-05,0.004374020856720829,0.07113386777792008,0.008633055641844651
1180,4.7589014717073854e-05,0.004131349616487093,0.05146960794970301,0.006898479159718715
1181,7.645240480187043e-05,0.004700969238016842,0.07911757059277402,0.008743706582558085
1182,7.619164279296736e-05,0.00590822911817474,0.05391586156644579,0.008728782434736626
1183,8.61375987972243e-05,0.006306865792842707,0.06543097196177161,0.009281034360308317
1184,5.947472492535022e-05,0.00495790955984007,0.06549673506930942,0.007711985796495607
1185,5.513737700884492e-05,0.003702648621724839,0.07668078343076878,0.007425454666809614
1186,8.764802718379906e-05,0.005473573248621476,0.05911963511673868,0.009362052509134836
1187,8.006065915783246e-05,0.004691407637462614,0.06808262758074513,0.008947662217463929
1188,7.60092168112896e-05,0.004636835901146248,0.07548638873806279,0.00871832649143681
1189,6.0483993311172833e-05,0.005176048826030505,0.056618333465937365,0.0077771455760562895
1190,7.142535397371342e-05,0.004189994618737642,0.07621037079531257,0.008451352197945199
1191,6.692581280617442e-05,0.005554310480560891,0.06484962371056291,0.008180819812596652
1192,7.536770195590994e-05,0.005589881374134264,0.07057463602645608,0.008681457363594505
1193,5.691440573295585e-05,0.004705456790830719,0.06139121915005963,0.007544163686781672
1194,7.074640042415758e-05,0.004698935126931016,0.054756521978204686,0.008411087945334838
1195,3.795021635763171e-05,0.0036576655018907608,0.06407516292151039,0.006160374692957505
1196,5.819580753049601e-05,0.00500852266438079,0.07049496613528822,0.007628617668391532
1197,6.910234688861574e-05,0.0042356893516586926,0.07107724360285439,0.008312782138887998
1198,5.799712521501646e-05,0.004725410180053723,0.0597079601008792,0.0076155843646443875
1199,6.901767404453998e-05,0.00535987547118141,0.05304384581072925,0.008307687647266198
1200,5.281329504511041e-05,0.004085191807852251,0.06443352579787431,0.007267275627434929
1201,5.351474650978148e-05,0.004536603842507945,0.07181598865171401,0.0073153774003656925
1202,5.263906715862697e-05,0.004248807106991902,0.08088591979607695,0.007255278572089893
1203,7.77128854673931e-05,0.004725439722561596,0.08247502212907509,0.008815491220992313
1204,9.127727677283802e-05,0.006229650480989835,0.0650311715034082,0.009553914212135119
1205,5.649018423241326e-05,0.005074642021715747,0.05894923718104739,0.0075159952256778914
1206,4.359888947505937e-05,0.004241767112137775,0.0643528527028705,0.006602945515075742
1207,6.518589224723026e-05,0.004891658096469395,0.06242073275657156,0.008073778065269667
1208,7.052998975510637e-05,0.004226574693658042,0.09115482231523409,0.008398213485921043
1209,7.302087048347858e-05,0.005367856327231675,0.0664842620795234,0.00854522501069913
1210,7.893620298802082e-05,0.004807049939382273,0.06378636258011272,0.00888460483015537
1211,5.093947433418083e-05,0.004305876991857864,0.06372537641055831,0.007137189526289771
1212,5.467822120293198e-05,0.004679875098899208,0.06001777699857236,0.007394472341075568
1213,7.732494471617171e-05,0.004849570947422558,0.06934599046795542,0.008793460338010938
1214,5.9223476132851033e-05,0.004663161219610966,0.07856598334287623,0.0076956790559930726
1215,4.150999043317932e-05,0.0030656888197965787,0.05994946193060058,0.006442824724697906
1216,6.748627135547158e-05,0.005655586067494619,0.06311282927451983,0.008215002821391542
1217,5.12646565341461e-05,0.004271226813213777,0.07081319709867162,0.007159934115209824
1218,6.290899238096148e-05,0.004887156485326094,0.07071269727863805,0.007931518920166622
1219,5.110176534958339e-05,0.004537716766700794,0.04409384093618485,0.0071485498773935395
1220,5.15872421243554e-05,0.004106442943921534,0.07237423459233483,0.007182425921953878
1221,8.887909635660443e-05,0.00607148896430943,0.06664424499559107,0.009427571074067992
1222,6.647723858660817e-05,0.005177295257644022,0.06941515900167161,0.008153357503912594
1223,4.835816087799147e-05,0.004703362924852721,0.0702713625351068,0.006954003226774554
1224,6.0727547410757304e-05,0.004084274374685178,0.07211338449295612,0.007792788166680564
1225,7.591475007010103e-05,0.00408705580896316,0.07255250445523931,0.00871290709637719
1226,6.983427453689491e-05,0.004593991990926853,0.08142455711764551,0.008356690405710524
1227,6.722977938678616e-05,0.00508518622629174,0.07474176370948671,0.008199376768193153
1228,4.4230404402346186e-05,0.0038924771693374387,0.04718517330192373,0.006650594289410975
1229,5.891310214007887e-05,0.004942314077604491,0.0704199668064511,0.007675487094646072
1230,5.525688799396688e-05,0.004986627995869006,0.05657521161286638,0.0074334976958338
1231,5.753936163645919e-05,0.003961019704403898,0.05740983266757471,0.007585470429476245
1232,5.788912784060066e-05,0.004265360213713045,0.06808471358096391,0.00760849050998949
1233,7.782419626659967e-05,0.004621619968904633,0.07150660663072905,0.008821802325296068
1234,6.088867014601898e-05,0.004887169722672989,0.06744044962602791,0.007803119257451988
1235,5.536904903846738e-05,0.004070860843073792,0.08105818340447879,0.007441038169399968
1236,6.553633790016495e-05,0.0053599950735799505,0.07620162837203193,0.00809545167981158
1237,5.117406091739919e-05,0.0051632996985834815,0.05492304169993617,0.0071536047498725035
1238,7.234317464674594e-05,0.00471175606483601,0.0737365811076085,0.008505479095662152
1239,4.7824764907644204e-05,0.005089789521497799,0.04923174527843466,0.006915545163444728
1240,6.299674023862012e-05,0.005268087012304975,0.05482043462036845,0.007937048584872076
1241,7.417284960590426e-05,0.0042977333055007685,0.06407021492114673,0.008612366086384368
1242,5.925583258672718e-05,0.004940491140250403,0.05970107358068688,0.007697781017067623
1243,5.273455864540372e-05,0.003702200902495799,0.07583250734660935,0.007261856418671705
1244,5.0786156132768414e-05,0.004547754389834669,0.06852109665717343,0.0071264406356026004
1245,6.616763220875275e-05,0.0047542530808640905,0.07972600259712948,0.008134348911176145
1246,6.662569429973684e-05,0.00426741739001821,0.07708340686297532,0.008162456388841305
1247,5.6001599885664046e-05,0.004852561524447561,0.04869712854726982,0.007483421669641721
1248,5.008745866737753e-05,0.0045347982332586845,0.080372471783968,0.007077249371569236
1249,6.050304159294672e-05,0.004406336452288649,0.06196608912294321,0.007778370111594449
1250,6.307652917808201e-05,0.00398619023675415,0.07631033309652546,0.007942073355118389
1251,4.9478383462588305e-05,0.004197147222358151,0.06970513289674174,0.007034087251562052
1252,6.673608343263366e-05,0.0054600896863356485,0.06789963983837577,0.00816921559469656
1253,8.112291128814316e-05,0.005521271199376734,0.05310952224405341,0.009006825816465107
1254,6.139454760442624e-05,0.004629569906691148,0.07001954334800065,0.00783546728692204
1255,6.048648283534425e-05,0.005054756300238338,0.06587481088343161,0.007777305628258659
1256,7.476678448824107e-05,0.005183107271413044,0.07043204405261427,0.008646778850429828
1257,4.671637608969309e-05,0.0040047720332612915,0.0722165850092702,0.006834937899475971
1258,6.974235133215586e-05,0.005464111773987033,0.06961058453738334,0.008351188617924728
1259,4.923606511668401e-05,0.004666556481860467,0.07095581310435728,0.007016841534243435
1260,5.827909505084563e-05,0.0037098610256132087,0.07631582590333741,0.007634074603437204
1261,5.472909639882099e-05,0.004422082025405469,0.07972969488117121,0.007397911624155853
1262,7.902430524205324e-05,0.004860643447861307,0.07305497674453854,0.00888956158885536
1263,5.20623889416928e-05,0.004386190301658737,0.07461512784722402,0.007215427148942212
1264,7.666179672465527e-05,0.005368436120312023,0.06555202684002759,0.00875567226000694
1265,7.358687574903152e-05,0.00537845468794994,0.07488652669637655,0.008578279300012962
1266,5.520243898240866e-05,0.004878824339528522,0.06287342997531775,0.007429834384588149
1267,7.51504501523824e-05,0.004255276366376359,0.06848708324354913,0.008668935929650278
1268,6.06057414429541e-05,0.005071968174325285,0.07085556549540062,0.007784968942966543
1269,5.823761517396198e-05,0.004619119172929766,0.06435622448960832,0.0076313573611751055
1270,6.672319362831551e-05,0.005138426645329251,0.06091607012986611,0.008168426631139852
1271,6.43286102490068e-05,0.004132888408506627,0.07950688748692425,0.008020511844577393
1272,6.396550228309606e-05,0.004150130205042012,0.07907324399659621,0.007997843602065215
1273,6.243003119210532e-05,0.005157912633923061,0.05108647814168299,0.007901267695256555
1274,7.376429929974073e-05,0.006178231818092629,0.04344633867592318,0.008588614515726057
1275,5.343317924084975e-05,0.0048555967872139045,0.05532444869770137,0.007309800218942346
1276,6.451356051356115e-05,0.004584782070759339,0.08225640546155244,0.008032033398434096
1277,7.223297568486299e-05,0.005038767771270558,0.06886898761623694,0.008498998510698907
1278,5.493593107925836e-05,0.004984538478345064,0.0471852799803536,0.007411877702664673
1279,7.760130094413813e-05,0.004569712741548794,0.07043327278744105,0.008809160058946448
1280,7.278990860058466e-05,0.004055792616096946,0.07135021508605788,0.008531700217458651
1281,6.30512521510595e-05,0.004022912261644043,0.0732780444301886,0.007940481858870977
1282,6.488642116299455e-05,0.005690733444373281,0.05547983435530836,0.008055210808103902
1283,5.8591236129692244e-05,0.004858758608693888,0.05853023554962267,0.007654491239115252
1284,7.710905712819503e-05,0.005748240412650136,0.050170748979169844,0.00878117629524623
1285,6.694241595371452e-05,0.0053965359467536686,0.05527098051124579,0.008181834510286427
1286,4.29811546428754e-05,0.004078134948250295,0.05822901780482048,0.006556001421817659
1287,7.315115750765588e-05,0.005456455481375927,0.07410017579215467,0.008552844994950811
1288,7.081144678395728e-05,0.005370710045205931,0.07016361542406102,0.008414953760060512
1289,4.696031709117744e-05,0.004373582337591425,0.05721291432681763,0.006852759815663835
1290,4.4927795523821675e-05,0.00430850220424402,0.04232216014063528,0.006702819968029986
1291,4.705164323963533e-05,0.0037828611891249186,0.07062369558990467,0.00685942003668205
1292,7.671664352100359e-05,0.005347090834770643,0.0683995863317457,0.00875880377226268
1293,8.058296767233332e-05,0.00542964547300125,0.06560395974986843,0.008976801639355315
1294,5.503496772330703e-05,0.0033744810910068352,0.07918233227170957,0.007418555635924458
1295,5.93161451634438e-05,0.005189388162228554,0.05218650990446916,0.00770169755076393
1296,6.168592711293215e-05,0.005019236765883845,0.04817966619834557,0.007854038904470223
1297,6.10553227331215e-05,0.004571653806162048,0.059765822254868706,0.007813790548326783
1298,5.9621343969783975e-05,0.003869457529343267,0.07307063616705722,0.007721485865413695
1299,4.169957145266299e-05,0.004600645641728791,0.06053943349963209,0.006457520534436005
1300,8.617983936869541e-05,0.005002911756193265,0.07239955143121879,0.009283309720605837
1301,6.53834868419955e-05,0.004886634479098142,0.08668324770231584,0.00808600561723742
1302,6.180269111921388e-05,0.003995682331021913,0.07262481954726674,0.007861468763482664
1303,5.2100741728742085e-05,0.004662817153921464,0.05773251983353589,0.007218084353119016
1304,6.985446153754016e-05,0.0038115668089034275,0.0890406909198389,0.00835789815309685
1305,5.5626923793931975e-05,0.004695628418556563,0.06828982192141941,0.007458345915411229
1306,4.452637212219284e-05,0.00399244168064415,0.07450810250908191,0.006672808413418784
1307,6.952403415865116e-05,0.00502619977315738,0.06248385348151064,0.008338107348712308
1308,6.884939745605551e-05,0.004221165862773,0.07598579669989902,0.008297553703113665
1309,5.511608737223756e-05,0.004864781121637246,0.058977438838659246,0.00742402097062214
1310,5.896974634345751e-05,0.0039011448936504397,0.06596441049841495,0.007679176150047438
1311,6.373992944203891e-05,0.005142227881952033,0.056801163799415466,0.007983729043626058
1312,6.51031423174633e-05,0.0052615835322530795,0.06431633705159123,0.008068651827750564
1313,8.906526746281011e-05,0.00530576384571013,0.06410096101629748,0.009437439666710972
1314,4.367951016156003e-05,0.004235577259670422,0.06570953853280992,0.006609047598675624
1315,7.943513493261169e-05,0.005699016387554366,0.05341799114924761,0.008912639055443193
1316,5.506903386497456e-05,0.0051976602900031706,0.05141750574467485,0.007420851289776265
1317,5.671804707661396e-05,0.004754623345344183,0.06450920856614673,0.007531138498036921
1318,4.658627815650418e-05,0.004185343512038423,0.06452103049332125,0.006825414138094776
1319,6.004012818022192e-05,0.004961528746582875,0.07332643265538241,0.0077485565223608995
1320,7.82100816668011e-05,0.005314800563812475,0.07830061295285784,0.008843646401049756
1321,4.565196722040943e-05,0.004323582159908658,0.05917227913319545,0.0067566239513834865
1322,5.0661299510348484e-05,0.0046940260291754785,0.06837570312966035,0.0071176751478518735
1323,5.887589859702169e-05,0.004930022059780519,0.05999151862951768,0.007673063182134058
1324,5.9933239783527076e-05,0.005262224513162363,0.04691460790702612,0.0077416561395818925
1325,6.234304304477427e-05,0.004758109230537144,0.07345327096713117,0.007895761080780859
1326,6.0272549159751515e-05,0.004398699996038701,0.06611956996942792,0.007763539731317881
1327,5.573863290574061e-05,0.004104864580964672,0.07679885922905899,0.007465831025796154
1328,6.959075289970824e-05,0.0049255379323311956,0.06915016505725013,0.008342107221782
1329,7.728758209342292e-05,0.00510193672756634,0.0711118300478022,0.00879133562625284
1330,4.013918088207656e-05,0.004728400975658998,0.036674863720461026,0.006335548980323351
1331,5.118934649263949e-05,0.0038162931210813725,0.0727805603305196,0.007154673052812334
1332,6.69904819434079e-05,0.004466547632313617,0.07137247755291476,0.008184771343379563
1333,7.10239589227864e-05,0.005426024930986995,0.06938439762971349,0.008427571353764122
1334,7.192462496771371e-05,0.005809365676528867,0.06151309472141131,0.008480838694829235
1335,7.090225420366585e-05,0.005903081853603603,0.05923354951397197,0.00842034762962109
1336,5.9692635884464317e-05,0.0038504025797841735,0.07842951510612028,0.007726100949668195
1337,7.149675695473662e-05,0.004319605765879102,0.059388055635861914,0.00845557549518279
1338,5.401276989445341e-05,0.005308416533004957,0.05700673198156858,0.007349338058250761
1339,6.533504154616347e-05,0.005122883245656827,0.0734844176406157,0.008083009436228757
1340,6.929537332576689e-05,0.00488194645410793,0.06769799260187637,0.008324384261058977
1341,5.135181558044928e-05,0.004570718065644006,0.06397158255730329,0.007166018111925835
1342,5.483683078342598e-05,0.004908959842476914,0.06248425685145831,0.007405189449529671
1343,6.272433906615809e-05,0.005028708230368233,0.06414991275634829,0.00791986988947152
1344,6.428501789918813e-05,0.004667607247466311,0.06667350390820204,0.008017793829925238
1345,4.9660763018598475e-05,0.00443081733658226,0.08451065203458175,0.007047039308716669
1346,5.900175871315834e-05,0.004832957936661467,0.07344865332654049,0.007681260229490857
1347,6.580499158508534e-05,0.0043066856037596996,0.06708833154365523,0.008112027587791146
1348,5.0183953416173224e-05,0.004099130050458161,0.07381532511787947,0.007084063340779259
1349,5.624723489550886e-05,0.004413832831086826,0.06927955616765225,0.007499815657435089
1350,6.0061496295265694e-05,0.0051122022105685875,0.06233099145136789,0.00774993524458529
1351,8.616376715315092e-05,0.005637459049225224,0.06954675725255921,0.009282444029087926
1352,5.375049734359643e-05,0.004667665820655667,0.0692196462775545,0.007331473067780843
1353,6.121239330315576e-05,0.0052965133457243,0.06123020125671497,0.007823834948614081
1354,4.599700512536774e-05,0.004619447416152293,0.05526887207358744,0.006782109194444405
1355,4.753357521062201e-05,0.004408324255556586,0.07036906692178874,0.006894459747552507
1356,4.877707992461174e-05,0.004144347664267109,0.048635688318547476,0.006984058986335351
1357,3.9412570572681145e-05,0.003983889267282298,0.07003525205906858,0.006277943180109288
1358,5.695139301412976e-05,0.004111457111228231,0.05435240675933453,0.007546614672429556
1359,6.447904540417989e-05,0.0053961260480435685,0.052826066952516015,0.008029884519977848
1360,6.026514240288802e-05,0.004724794751044728,0.06583964728181924,0.007763062694767296
1361,7.895006324468153e-05,0.005051845393803129,0.08012358217796667,0.008885384811288751
1362,6.613229327773793e-05,0.004917724373063078,0.05905431187061705,0.008132176417032356
1363,5.5705790279146454e-05,0.004428644371539892,0.06883126584223688,0.0074636311725021585
