sample_index,mse,mae,max_absolute_error,relative_error
0,5.685267460928182e-05,0.003516229620896637,0.08749063461998752,0.007540071260225678
1,4.31499280890889e-05,0.0035719206910626174,0.06677175155284498,0.0065688604863468145
2,7.218562394482068e-05,0.005092817393110106,0.071538269639146,0.008496212329315937
3,6.512022285090755e-05,0.005475251781768696,0.06911688877233901,0.008069710208607665
4,6.660876910412296e-05,0.005021515718926357,0.07245856559633923,0.008161419552021727
5,4.2509255679806295e-05,0.0044300611645261105,0.06963186864342319,0.006519912244793351
6,6.630282737147681e-05,0.004680551823319371,0.06444766899860233,0.008142654811023008
7,5.313613903785913e-05,0.004922284275831383,0.06868220380051504,0.007289453960198867
8,5.704413935761008e-05,0.004863627313934244,0.07075536501245949,0.007552757069945344
9,7.837859070497068e-05,0.005462901759846068,0.06534420073131386,0.008853168399221283
10,4.462065286502184e-05,0.003876075344681209,0.05050208755213159,0.006679869225143667
11,6.224838847724459e-05,0.003465560795344381,0.06620513154234486,0.007889764792263715
12,5.35725221066014e-05,0.004401208740846321,0.06160777217768576,0.007319325249406599
13,4.504975761509666e-05,0.004553137518125263,0.05249541303043559,0.0067119116215200655
14,3.665082739568938e-05,0.0033726969697725636,0.052204655618755424,0.006053992682163486
15,6.258906516503657e-05,0.004653610393641851,0.05286731554719237,0.007911325120675786
16,6.419079447443247e-05,0.005051016062157759,0.08230090124913492,0.008011915780537882
17,3.582582116233998e-05,0.003760345918724915,0.06644455447690145,0.005985467497392306
18,6.274278705902822e-05,0.0048310358076694235,0.06046881054039077,0.007921034468996333
19,6.451258295367169e-05,0.005614525115187329,0.049337964953728886,0.008031972544379805
20,6.170881573356154e-05,0.005222097609361603,0.07483044772518177,0.007855495893548732
21,5.82001697329701e-05,0.0032170194759433466,0.08550443750469072,0.007628903573448144
22,5.221771254587694e-05,0.003907873372918834,0.07120827354625839,0.0072261824323688285
23,8.488113192494805e-05,0.005580926482561617,0.07538960595892519,0.009213095675447406
24,7.038340472103553e-05,0.005402208232296787,0.07155557986896932,0.00838948179097106
25,5.3380543774482704e-05,0.0045954125635136065,0.05659566028106222,0.007306198996364813
26,5.6896553939405575e-05,0.003859246238669913,0.08207475181191168,0.007542980441404128
27,6.559686297444234e-05,0.005304339011766475,0.06935727169979167,0.008099189031899542
28,7.743450655726714e-05,0.00508742695455453,0.07796430124341902,0.00879968786703635
29,5.7439017665201384e-05,0.004926329360444192,0.06840108463415362,0.007578853321261795
30,5.057143807897195e-05,0.003418444356451146,0.07352916596401249,0.007111359791134983
31,4.7884281378270914e-05,0.003459995419200425,0.06209924401848543,0.006919846918702065
32,7.517887756152524e-05,0.0034666076483736664,0.09306746296821261,0.008670575388146074
33,8.008559930367989e-05,0.005406592066857147,0.061511478740635006,0.008949055777213534
34,4.744066618662631e-05,0.004749181102290712,0.06411142847157958,0.006887718503730098
35,6.910803768379038e-05,0.004922244812683708,0.09640855535499604,0.00831312442369234
36,6.999690496831463e-05,0.005575228776276538,0.07121544735788277,0.008366415299775314
37,2.739136852127933e-05,0.0026156337254793823,0.06642355824531432,0.005233676386755215
38,5.884366449574181e-05,0.005580988532966399,0.05444837595565999,0.007670962423043251
39,5.379780380467474e-05,0.0037017773234397405,0.08181067964859778,0.007334698617167197
40,5.9869379869111656e-05,0.00437490222685903,0.07261460915503326,0.007737530605374763
41,5.2181964136169394e-05,0.004013145937308576,0.09379620218886142,0.0072237084753033086
42,5.401212562550211e-05,0.004528932172416674,0.07912146295756006,0.007349294226352737
43,4.727692202022418e-05,0.004112027253631317,0.0647236686515692,0.00687582155238367
44,5.184046646430628e-05,0.004552162510621367,0.06546309397392003,0.007200032393281698
45,4.996495995706324e-05,0.003980142824537583,0.0749653230307189,0.007068589672421426
46,5.680532899587095e-05,0.003351276550993914,0.07759498148233401,0.007536931006442245
47,4.974500886016015e-05,0.004544232633529846,0.06969056119523842,0.007053014168436063
48,5.082752104820497e-05,0.004748147047037997,0.0637039746127468,0.007129342259157184
49,4.862044784906884e-05,0.003659164558513563,0.10117776717327631,0.006972836427815328
50,9.170055923078818e-05,0.005981573028030667,0.06762266309811071,0.00957604089542162
51,3.924638109287247e-05,0.003964433026780744,0.0779515918260163,0.006264693216181652
52,4.140936828189707e-05,0.0037830099811683726,0.07858099092876714,0.006435011133004892
53,4.8940948896896105e-05,0.004699847130337868,0.06969436919025807,0.006995780792513167
54,6.91099111428546e-05,0.00510808489927222,0.07260887305102859,0.008313237103731275
55,4.989979277391941e-05,0.004653826228900758,0.06144334873060853,0.00706397853719266
56,5.2225537966591564e-05,0.004365504566968544,0.08152811333368737,0.007226723875075832
57,5.666036419392889e-05,0.003366529104061467,0.07892371728211822,0.007527307898175045
58,7.607150975184125e-05,0.004121127843003541,0.08735024538320069,0.008721898288322356
59,5.899069526943502e-05,0.004725196005636146,0.0706851677827709,0.007680540037616789
60,4.811864337019226e-05,0.004676506599738718,0.059934122126383216,0.0069367602935514385
61,7.731270376937118e-05,0.0059512223040863125,0.07395531112676057,0.008792764284874839
62,5.340407985794409e-05,0.004515101953821993,0.07947685153181716,0.007307809511607657
63,4.615269417269015e-05,0.003514798060192298,0.07153158795596948,0.006793577420821073
64,8.036453358761927e-05,0.00430373735200834,0.09169610460947553,0.008964626795780114
65,7.607724493833116e-05,0.00546170532385067,0.07431122368727205,0.0087222270629886
66,6.0573656073602574e-05,0.005468881628296486,0.05997722419119045,0.007782907944566865
67,7.271354433286517e-05,0.0054205035368471745,0.06416209701839715,0.00852722371776796
68,6.679324390200586e-05,0.004773472353645292,0.07585464000830022,0.008172713374516808
69,6.186073435716299e-05,0.00489563552274751,0.08073398885130542,0.007865159525220216
70,3.85977465621277e-05,0.003392429603926312,0.04317576860106298,0.006212708472327288
71,6.344607593248915e-05,0.004841470828355375,0.06986581420554172,0.00796530450971513
72,5.356207692638154e-05,0.005146683731565516,0.06018873097116817,0.007318611680256112
73,6.521822448566325e-05,0.005463261365184455,0.056156164867964264,0.008075780116227933
74,3.911261032050485e-05,0.0036922955118275486,0.05314363984312287,0.006254007540809708
75,7.398662194302285e-05,0.005494045757406483,0.06247778470346099,0.008601547648128337
76,6.400092868765465e-05,0.005334426776765475,0.05424849065717208,0.008000058042767816
77,3.7218991161865454e-05,0.0032665993813076237,0.06731805254902312,0.006100736935966441
78,4.575023812089623e-05,0.004175083657373069,0.057370557321322124,0.006763892231614582
79,5.605602977057166e-05,0.004974279175909004,0.07160559185273652,0.007487057484123588
80,7.13478422642421e-05,0.005329189004950436,0.05313113959548588,0.008446765195282821
81,4.714085148603717e-05,0.004772140113826664,0.06730438821310258,0.006865919565945774
82,6.109817939754206e-05,0.004315219507811364,0.0858809472150579,0.007816532440765632
83,2.7417918623314104e-05,0.003516186746655022,0.04157732164938199,0.00523621224009435
84,5.0902486623885096e-05,0.003951575278654329,0.06944685406613438,0.00713459785999777
85,3.884437548607987e-05,0.003532682150973273,0.057092831602769456,0.00623252561054341
86,6.589637853100698e-05,0.005246921862380526,0.0717085577861365,0.008117658438922306
87,5.3889383344611925e-05,0.0041579344962029705,0.07536015028704046,0.007340938859887848
88,5.6240887605959466e-05,0.004744074437475086,0.06953701372288945,0.007499392482458768
89,6.618665526320975e-05,0.004536925035259704,0.08594938730785628,0.008135518131207692
90,5.5549491641851524e-05,0.004377675028869669,0.06747749617206811,0.007453153134201081
91,4.5502617668657736e-05,0.00465614056639054,0.050271555925222144,0.006745562813335701
92,8.323061189338843e-05,0.0036204568842569547,0.09332356781227746,0.009123081271883285
93,5.6434080419448365e-05,0.0045037483580921255,0.06632824533503356,0.007512262004180104
94,7.702970407206558e-05,0.0058983433484245855,0.05251943737763787,0.008776656770779268
95,6.5105335391167e-05,0.004684818733002652,0.08241199726795745,0.008068787727482117
96,5.2003251031261116e-05,0.00333879298136128,0.08477276526213373,0.007211327965864593
97,6.219433019991333e-05,0.005052390098701702,0.09039013662401763,0.007886338199691487
98,4.741041196203693e-05,0.0036063465334303106,0.0733191387787997,0.006885521909197342
99,5.882279127147196e-05,0.00487189475578018,0.0638641736197334,0.007669601767462993
100,8.290391603809836e-05,0.0058223498357462735,0.06993740634726586,0.009105158759631716
101,5.254101372300896e-05,0.004089363773457542,0.06808112374764708,0.0072485180363304575
102,6.224008752752508e-05,0.004924235599343299,0.07121381241711955,0.007889238716601528
103,4.2452782033954785e-05,0.004131842676580037,0.06655286595604615,0.006515579946094932
104,5.05059612365479e-05,0.004284360073974455,0.05966742426153626,0.007106754620538672
105,5.287658051805687e-05,0.005280744309191124,0.03579779882174816,0.007271628463972602
106,4.789449535389275e-05,0.004485510503323383,0.06123869241382174,0.006920584899695439
107,6.379824230311185e-05,0.004395187585412348,0.09436269034893341,0.007987380190219535
108,5.515833383959184e-05,0.0046665008855995005,0.06310547847417247,0.007426865680729079
109,5.639104923843509e-05,0.004383409706267639,0.08273055253167516,0.007509397395159931
110,4.060035381057843e-05,0.0031408724394303344,0.07268271894567935,0.006371840692498352
111,6.0808808221159525e-05,0.00351084609287115,0.0790489485569772,0.007798000270656488
112,5.4776191582381956e-05,0.004915306959144552,0.061178803858652486,0.007401093944977434
113,6.161620424123108e-05,0.005038548877729528,0.06905454073976314,0.007849598986013895
114,5.212587441131711e-05,0.0035325067167081034,0.07165851696911218,0.007219825095618076
115,7.04028388234297e-05,0.005915175204520501,0.06128273469245826,0.008390639953151908
116,5.526643548722991e-05,0.0033627337102447295,0.0850500033644277,0.007434139861963159
117,5.635549953467154e-05,0.00429540009749822,0.078168413109589,0.007507030007577641
118,6.252439662586023e-05,0.004592310522552561,0.08825119996665387,0.007907236977975279
119,6.213614452368991e-05,0.004918321186537541,0.08106193578665244,0.007882648319168468
120,5.9411893483414734e-05,0.0035568700198772055,0.07582410184508992,0.007707911097269766
121,4.07481912972505e-05,0.0029035713641270434,0.07865578874873352,0.006383430997296858
122,4.276619818671221e-05,0.004103608367496069,0.08450675339694858,0.006539587004292532
123,5.409005079423788e-05,0.004392018838513051,0.059294986256775095,0.007354593856511562
124,4.453752905644895e-05,0.004539194928471024,0.06302712132140353,0.006673644360950649
125,4.1917537945793155e-05,0.004631374323554907,0.06304603958004895,0.00647437548693253
126,4.9700465380913305e-05,0.0029081154141427108,0.09138975915145009,0.0070498556992971825
127,6.0685313553494136e-05,0.004591014635295271,0.05124321133896448,0.0077900778913624355
128,6.095145213540234e-05,0.004292574247760145,0.08235187912949382,0.00780714109872505
129,6.482806814751787e-05,0.003639618332798104,0.08767206587738796,0.008051587927081048
130,8.552795405001513e-05,0.004899356261928483,0.09899081243569618,0.009248132462828084
131,4.319927030198373e-05,0.004397180059486527,0.06241360135822216,0.006572615179818723
132,5.130096986762833e-05,0.004089961377734546,0.08224662142437356,0.007162469536942389
133,6.35758705037115e-05,0.004872645320579287,0.0536132603692685,0.007973447842916564
134,6.041400556608598e-05,0.004697495573080746,0.07543826556782518,0.007772644695731653
135,3.8496412234824746e-05,0.003314940706812175,0.08773319963444504,0.006204547705902863
136,6.149363421939204e-05,0.0051283953648869575,0.07359887563899159,0.007841787692828187
137,7.16738605151137e-05,0.0053476770653429415,0.07042457436132987,0.008466041608397222
138,6.88057187679858e-05,0.005239214633196982,0.06700662270030769,0.008294921263519321
139,6.060892718668914e-05,0.004881392499898303,0.06949898528816867,0.007785173548912624
140,6.658934909196169e-05,0.004908738557472065,0.09739289168086795,0.008160229720538568
141,6.579475165387479e-05,0.00532315685798564,0.06842787638342473,0.008111396405913983
142,5.0137903646662894e-05,0.004577151265031857,0.06399341413727822,0.007080812357820433
143,5.138441875830268e-05,0.004737269920449896,0.07087529617116495,0.007168292597146292
144,5.738288513248473e-05,0.004412043902439826,0.06989700619704386,0.007575149182193347
145,4.755988235010368e-05,0.00422715689134068,0.08964953219423125,0.006896367329986385
146,7.389800258754349e-05,0.003383570498367867,0.07531114000391326,0.008596394743585404
147,7.354046880601716e-05,0.004648306179925542,0.08258032026228834,0.008575573963649111
148,7.724122799481171e-05,0.005673188443018264,0.057272502756599675,0.008788698879516256
149,8.513029885149431e-05,0.0053113196109461445,0.08047137764888479,0.009226608198655324
150,6.158247706710324e-05,0.004827237635417127,0.06852864526389801,0.007847450354548445
151,6.03222443075291e-05,0.004487784143535969,0.06501494411981135,0.007766739618883127
152,6.967375968407489e-05,0.004931102677846413,0.07430314081531098,0.00834708090796259
153,4.961632093310341e-05,0.004511183773741133,0.05072936288363117,0.00704388535774845
154,4.9348886598372066e-05,0.004551630724999374,0.06504496580757202,0.007024876269257113
155,4.6071013610040354e-05,0.004003982087554292,0.07517250425599631,0.006787563156983508
156,6.337206215214633e-05,0.0052167462307988475,0.06429163157904894,0.007960657143235465
157,8.651001069030087e-05,0.004433958138986613,0.09536596499254824,0.009301075781343785
158,5.693774466908529e-05,0.00390797047370253,0.07344719399683064,0.007545710348872755
159,5.113251595768663e-05,0.0041691741235632225,0.0762296429143452,0.007150700382318246
160,4.548392339851825e-05,0.004117478939636447,0.07059722034661098,0.006744176999346754
161,6.13728981974945e-05,0.00501396104048272,0.06473079996691133,0.007834085664421474
162,4.412099969791372e-05,0.004057837681331801,0.08460780600619078,0.006642364014258276
163,5.2405803864144694e-05,0.004689102417397606,0.06787655968560813,0.007239185303896033
164,6.250913391566452e-05,0.004430026179527363,0.06324749562505394,0.007906271808865668
165,6.82161261719646e-05,0.005539273712343756,0.059670954227770245,0.008259305429148635
166,5.389722660868611e-05,0.004674912514621063,0.06830522497149172,0.00734147305441393
167,6.370405180887234e-05,0.004908341610955837,0.08335467648347228,0.007981481805333613
168,7.836945341191169e-05,0.0054360903763416455,0.05765561838381439,0.008852652337684494
169,6.821088008081316e-05,0.00572284228339103,0.06566607670474056,0.008258987836340053
170,5.4320440297048524e-05,0.004825717103431513,0.07525217514767002,0.007370240179061211
171,4.987515865521073e-05,0.004257106183757555,0.07475152706790016,0.007062234678570944
172,7.411085593777296e-05,0.005135692601960315,0.0605952931171152,0.008608766226223854
173,6.30280337025682e-05,0.005276914240950077,0.06785124202844406,0.007939019694053404
174,6.001442032251292e-05,0.004689361205249865,0.07005284713556748,0.007746897464308696
175,6.0600443120124804e-05,0.003845126311451614,0.07319313848330777,0.007784628643687778
176,8.05459058038289e-05,0.005297051493590978,0.08391884174689945,0.008974737088284432
177,6.569001305396266e-05,0.004808970029071247,0.06285981073742086,0.008104937572490143
178,4.4443033492725535e-05,0.004487630118280513,0.045750413991329175,0.006666560844447835
179,6.05386973169841e-05,0.0029961387068130505,0.09332243613069768,0.00778066175315337
180,6.699904981971509e-05,0.004836340597497101,0.08507046273546942,0.008185294730167901
181,6.500410526904273e-05,0.0050864655919435585,0.05964340538854418,0.00806251234225672
182,6.871213545604254e-05,0.005576131863317804,0.06624714898078565,0.00828927834350141
183,5.9136234349416166e-05,0.005080167227689714,0.07479478486583724,0.0076900087353276424
184,4.894372216152219e-05,0.003854021743079313,0.07518364212386897,0.006995978999505486
185,5.978572539039051e-05,0.0052230962609513655,0.0660296504686868,0.007732122954945167
186,4.9051857807805516e-05,0.003526008779669621,0.0833441488092257,0.007003703149606302
187,5.7107674409903364e-05,0.0043525998643933255,0.07355802683326829,0.007556961982827698
188,6.300871818212441e-05,0.005075659998354882,0.06760583057594216,0.007937803108047202
189,7.897183532081267e-05,0.005278800777595677,0.08108561934636249,0.008886609889086624
190,3.587353176350883e-05,0.0038414360752394424,0.06476269840772364,0.005989451708087183
191,4.58756368260221e-05,0.0038011866638042917,0.057822478535203836,0.006773155603263649
192,6.792573090745734e-05,0.005497162878362631,0.05892226641877052,0.008241706795770949
193,7.02613760871375e-05,0.004452346450085628,0.06924060100078333,0.008382205920110582
194,7.8037884219269e-05,0.003913272575469519,0.08914823610033995,0.008833905377536526
195,4.458178636766809e-05,0.0033772118109974647,0.07490744323869247,0.006676959365434808
196,4.757095324733311e-05,0.004062583098659405,0.06753330695200188,0.006897169944791314
197,6.308618344101304e-05,0.004824929026367418,0.07144889625444861,0.00794268112421822
198,5.0733102333491565e-05,0.0030380381212350748,0.07652380175065865,0.007122717341962335
199,5.7147862890770135e-05,0.004963433475836168,0.07245427428892359,0.007559620552036314
200,6.242134718074549e-05,0.00435248811853945,0.07572432348845748,0.007900718143355384
201,5.783212427575687e-05,0.004058833234363279,0.07728145741780068,0.007604743537802981
202,9.029148747142653e-05,0.005249297868244623,0.07246158037810702,0.009502183300243482
203,7.732551600246405e-05,0.005888341055602457,0.0480643176345652,0.00879349282153932
204,3.141970346229284e-05,0.002980535702988219,0.07181687279734561,0.005605328131545256
205,4.899084880517006e-05,0.00410779331143679,0.0787239344727606,0.0069993463127045056
206,7.421442683065919e-05,0.005408682683494316,0.06900292414398512,0.008614779557867876
207,4.820863781627715e-05,0.003977545570223746,0.06799793831990186,0.006943244041244459
208,5.223371094651499e-05,0.004602581407444573,0.07647007326908684,0.0072272893221812205
209,6.210332260054035e-05,0.0049316502024903406,0.0626053710125738,0.007880566134519778
210,5.155072774526135e-05,0.004542002382556702,0.06950882071943187,0.007179883546775733
211,6.654459247542174e-05,0.005508892712523169,0.05655019288467589,0.008157486897042546
212,5.543084023704082e-05,0.004538888878977875,0.0821820261907441,0.007445189066574489
213,3.7857111793446164e-05,0.0033615435919226626,0.05756069699959898,0.0061528133234680545
214,6.38522066294053e-05,0.00482779835093658,0.06418857568113656,0.007990757575437065
215,7.370071151034275e-05,0.005643733356573347,0.06194668408354076,0.008584911852217365
216,4.6575683920453745e-05,0.0042373115773054896,0.06908109221117531,0.006824638006550462
217,6.312420025723659e-05,0.00476682266310425,0.06732963973461581,0.007945073961722199
218,5.889782531853896e-05,0.004342138611942493,0.08844019976806194,0.007674491860607998
219,4.5320191831050224e-05,0.004831880970724282,0.04544756513228787,0.006732027319541262
220,6.983378550036302e-05,0.004235701274149259,0.0862311652078821,0.008356661145479248
221,5.895630845678737e-05,0.004860763936659155,0.0723685158571874,0.007678301143924148
222,6.678629758919484e-05,0.003867312637650489,0.08095139727760703,0.00817228839366271
223,6.473024158279116e-05,0.0037150120615443154,0.1097612550070508,0.008045510647733303
224,6.33870300441338e-05,0.004636969889922312,0.07895196464871335,0.007961597204338654
225,4.361500076968062e-05,0.003824951994506405,0.06637902983884914,0.006604165410532994
226,5.0314716600925036e-05,0.003828756035133086,0.06510160890662586,0.007093286727668947
227,6.737331215796904e-05,0.004266576339869808,0.08374647208094999,0.008208124765009876
228,4.976018539349722e-05,0.004280227633438188,0.07729239026551582,0.007054089976283042
229,5.4031164615571904e-05,0.0048414757319322314,0.0719749986032221,0.007350589405998114
230,6.664589019497178e-05,0.005556115126016037,0.0681714402135325,0.008163693416277425
231,6.239678931029683e-05,0.005271290914486642,0.06162043328804745,0.007899163836147244
232,4.5542289356066606e-05,0.004134650760821727,0.06708569251464969,0.006748502749207844
233,7.840842734574692e-05,0.003875961344932215,0.0709553587600249,0.008854853321526324
234,5.6131523496795726e-05,0.0046353243231798255,0.06697581789594498,0.007492097403050449
235,5.271639602079632e-05,0.004292155650292538,0.07015964120473939,0.007260605761284384
236,7.613708685749119e-05,0.004284840588539807,0.08657876540981402,0.008725656815248398
237,6.771851977752787e-05,0.005268890508606834,0.07117056147551892,0.008229126307058814
238,6.604410879866952e-05,0.005081883873191762,0.06277160632536116,0.008126752660113925
239,6.420370602626692e-05,0.004564010717576754,0.0739522984905272,0.008012721511837701
240,6.928467344120899e-05,0.005504970090374387,0.05867291760967719,0.008323741553004197
241,6.518752928334192e-05,0.005192824557035117,0.07408370031220857,0.008073879444439424
242,5.048495256528379e-05,0.0039251795689824644,0.08866010504223931,0.007105276389084601
243,8.193533053062412e-05,0.006187237496353887,0.07147958690356099,0.009051813659738225
244,4.202829857251511e-05,0.005165261193490409,0.034598842070667324,0.0064829236130402495
245,6.410537518982964e-05,0.004326294353586245,0.08635539432146633,0.008006583240673208
246,6.579705047257862e-05,0.0051408069282971505,0.05745194990667235,0.00811153810769438
247,5.613489145084695e-05,0.004730014209354553,0.08370415393917519,0.007492322166781572
248,4.42427418142979e-05,0.004595799797755819,0.05633681765420473,0.006651521766806277
249,5.4447629586294085e-05,0.0042668298295832725,0.06880801756763555,0.0073788637056320374
250,3.5514472227624516e-05,0.003078369836890436,0.08323937722924502,0.005959402002518711
251,5.568987347208028e-05,0.003112523715294476,0.07831316476177252,0.007462564805218136
252,6.0700836615394846e-05,0.00421204672386564,0.07100080177109946,0.007791074163130156
253,7.274960242392921e-05,0.004111821606869719,0.094018379594905,0.008529337748262101
254,4.61057483420909e-05,0.0029266443251033977,0.07791336976598107,0.006790121379039582
255,5.53352188432167e-05,0.004540666274442579,0.0925549746670149,0.007438764604638075
256,7.900236934264546e-05,0.006214070840404898,0.06067794789702674,0.008888327702253401
257,7.570479781785061e-05,0.005147879706795311,0.0680187110801258,0.008700850407738893
258,3.976347717448528e-05,0.002969531429510665,0.09607547909043923,0.006305828825339716
259,5.564770906790984e-05,0.0044929803767562665,0.08381605774460787,0.007459739209108408
260,5.012428217715125e-05,0.004619411229735669,0.08316776469272824,0.007079850434659688
261,6.295275843028784e-05,0.004821820050148667,0.06947620683349542,0.007934277435928686
262,8.480983705119364e-05,0.006202253945380954,0.07085964747543216,0.009209225648836767
263,6.174582018696647e-05,0.0036259264071034298,0.08266755499691547,0.00785785086311558
264,5.978919319102284e-05,0.0036573281834107194,0.0865386065985917,0.00773234719803903
265,4.4919738319594415e-05,0.0037014094954831403,0.0736690894416534,0.00670221891015164
266,6.294176936690061e-05,0.0051340526105736976,0.05369813596484635,0.007933584900087767
267,6.824325476199128e-05,0.004888315049104928,0.0738199369074346,0.00826094757046618
268,4.82107520305906e-05,0.00385912263592328,0.07530532185202166,0.006943396289323418
269,3.8682181677220306e-05,0.004379334781113238,0.060326365208695165,0.006219500114737554
270,4.139967763740645e-05,0.0036622499102169277,0.07727616910504986,0.006434258126420349
271,4.82823962163526e-05,0.0037016948066542466,0.0830839646954189,0.006948553534107106
272,6.556535577111824e-05,0.003849693336925039,0.07739566425753797,0.008097243714444943
273,8.579527792209204e-05,0.0044363063669988784,0.092356898716627,0.00926257404408144
274,6.79777871746842e-05,0.00507936810692695,0.057993005478860216,0.008244864290859112
275,6.0642267818357226e-05,0.005029007699159381,0.07147089130139328,0.007787314544716744
276,5.5700385108188176e-05,0.0038762120436596575,0.07948587487225295,0.007463269063097462
277,6.16522280138929e-05,0.004687377793529619,0.07414103344397804,0.007851893275757912
278,5.515969689499254e-05,0.004973840620088526,0.04908980925500939,0.007426957445346791
279,5.756048440666283e-05,0.004847007319135003,0.05550946338165463,0.007586862619466779
280,7.472608973889426e-05,0.005983389517840546,0.06127389337764977,0.008644425356198868
281,6.706295351433814e-05,0.0037514342699600757,0.10625491874043558,0.008189197366918055
282,4.9653182187523044e-05,0.004532071600254257,0.059561153342769124,0.0070465014147109125
283,5.33009329833356e-05,0.004404956009557833,0.06101386736664009,0.007300748796071201
284,5.182615805887381e-05,0.004683617085317995,0.0828186135816753,0.007199038689913637
285,5.312229224301075e-05,0.004548437437420301,0.08291279049731859,0.007288504115592621
286,5.140954390768947e-05,0.00449585680077586,0.06258554598149058,0.0071700449027665815
287,5.060738464306471e-05,0.004489220992243492,0.07257190770592548,0.007113886746572818
288,6.221962657029658e-05,0.0037112881301198364,0.09833985758024522,0.00788794184628006
289,4.9708022841631804e-05,0.003666872797305776,0.06661469115268837,0.007050391680015458
290,4.3404845410992114e-05,0.004665650316886283,0.05770891522067245,0.006588235379143012
291,5.097835557529509e-05,0.0043496685427568405,0.07325548723540298,0.007139912854880986
292,7.296769684124586e-05,0.003560923665346825,0.08823476251282969,0.008542113136762189
293,7.095533769812256e-05,0.004174938591130269,0.07442638558601433,0.008423499136233234
294,7.21537584106991e-05,0.005730687898295266,0.05239914177355676,0.008494336843491594
295,3.1378143693035474e-05,0.0027648145085250497,0.08889828537362465,0.0056016197383466915
296,6.821507297037982e-05,0.005589483689286569,0.0613634061870334,0.008259241670418605
297,6.10770346324896e-05,0.00527547792876672,0.053141770432691526,0.007815179756889097
298,8.896620709630805e-05,0.005205811762778914,0.08392968143239549,0.009432189941700012
299,5.8558073546445664e-05,0.0051850352292001824,0.05022716034030861,0.0076523247151728665
300,2.8357753616461807e-05,0.0029786161570180543,0.05457137750741259,0.005325199866339432
301,7.351595772263743e-05,0.005912852354989681,0.05810751163901973,0.008574144722515291
302,6.982694823767866e-05,0.0047035842607630815,0.07512117324704937,0.008356252044887009
303,7.986421838114691e-05,0.006138248202595304,0.056400271402264224,0.008936678263266854
304,6.252342269215852e-05,0.005298713051245398,0.05595370724371351,0.007907175392778236
305,4.6078971915532445e-05,0.0039249469363152505,0.0819172146465883,0.006788149373395672
306,5.443110247641483e-05,0.004859585839491765,0.058720470581276274,0.007377743725314312
307,6.513413216431799e-05,0.0040690168716851025,0.07414942295345195,0.008070571984953574
308,3.96174012138159e-05,0.003987594094986813,0.049996823781427224,0.006294235554363655
309,5.982565153453838e-05,0.004877605482950287,0.06756457849673758,0.00773470435986651
310,6.634333460096034e-05,0.004350368448119263,0.0823881464641758,0.008145141779058215
311,5.181642505178035e-05,0.0033902977885042294,0.070150088973715,0.007198362664646703
312,3.81604970497042e-05,0.0027497077100308367,0.06931294717860403,0.006177418315907049
313,5.1676282142121296e-05,0.004157380353785016,0.072025991675425,0.007188621713661179
314,6.515476545118756e-05,0.004320940493771023,0.0898562782639325,0.00807185018760795
315,7.991400354989403e-05,0.005804504630070587,0.07672271430449307,0.008939463269676406
316,5.887164971718946e-05,0.00312150415657512,0.07913433665123559,0.007672786307280347
317,7.182106077014959e-05,0.005230772149406251,0.07856111858003657,0.008474730719624643
318,6.828786164141764e-05,0.0054700479838692756,0.05350186515254585,0.008263646993998312
319,6.632503784402042e-05,0.003921458730034597,0.09366939150658027,0.008144018531659922
320,6.839609795349701e-05,0.0035885686591982952,0.07955566393840208,0.008270193344384174
321,6.138711096256136e-05,0.004857656449497509,0.08353662234997472,0.007834992722559555
322,7.48577479101932e-05,0.005308504919161104,0.0699876989964503,0.008652037211558475
323,5.190116397862234e-05,0.0036687087744921784,0.0932990801933915,0.007204246246389787
324,6.909896045121373e-05,0.0052262411593767075,0.06887633987360786,0.008312578447823125
325,6.090549203547206e-05,0.003955969082556856,0.0878239165296697,0.007804197078205504
326,5.0491133573041586e-05,0.003742550066433292,0.08049036784594765,0.007105711334767346
327,5.2560218676444646e-05,0.004046075676914135,0.07172889288618567,0.007249842665633805
328,4.870151847962395e-05,0.003577350991105407,0.06560109209696452,0.00697864732449085
329,6.0833959762168345e-05,0.004228302078569428,0.0834810594994293,0.0077996127956564566
330,6.916893623149404e-05,0.0045395755318374505,0.0887319579928666,0.008316786412520974
331,7.33861932653468e-05,0.005946277039359385,0.06073482960551779,0.008566574184897157
332,5.18052345452883e-05,0.005053021933864875,0.06368341003883682,0.007197585327405831
333,6.044983513022932e-05,0.004344450595127669,0.08180407873344375,0.00777494920435039
334,4.9961478060413906e-05,0.004058672546802065,0.06608062831338168,0.0070683433745407104
335,4.712197721355252e-05,0.0043622863741250096,0.07136028015896567,0.00686454493856308
336,4.972374381238329e-05,0.0038359940132519595,0.08510967896304988,0.0070515064924016845
337,7.50655424305578e-05,0.004569574230584365,0.07361123966141436,0.008664037305468898
338,4.185171754028363e-05,0.0037378338226682524,0.0761374813741762,0.00646929034286476
339,4.921771691753632e-05,0.004460804886592053,0.07033752283165273,0.007015533972374159
340,8.851677391729244e-05,0.0052224188378772836,0.09151843402845028,0.00940833534251897
341,5.584743230164776e-05,0.0047406928470799655,0.061024121619045246,0.007473113962843569
342,6.475444164195709e-05,0.0046029089941403015,0.08211328442596155,0.008047014455184996
343,4.397706916956348e-05,0.0039705915154217095,0.08438160538279327,0.006631520879071623
344,5.179090605808462e-05,0.00291477525842066,0.08453095035984326,0.007196589890919468
345,6.324865246462686e-05,0.004682149564172108,0.06959813708376705,0.007952902141019102
346,7.027703070513534e-05,0.004416281305201513,0.07776349596554055,0.008383139668712097
347,5.2959272653771704e-05,0.004862942757156342,0.07102861590132203,0.007277312186087055
348,5.3682610352308705e-05,0.003220794117415724,0.08377180306271192,0.0073268417720261875
349,2.810101108049007e-05,0.0030569502435434893,0.05339036084333593,0.005301038679399515
350,4.87286291665388e-05,0.004094419619371449,0.07061091335650937,0.0069805894569540845
351,6.162151904044769e-05,0.00513896632579872,0.06224093700264799,0.007849937518251164
352,7.058577603053981e-05,0.005988636983244444,0.0429343063008778,0.00840153414743637
353,4.361655150243885e-05,0.00421950138955213,0.05732171437936229,0.006604282815146441
354,5.855641582335235e-05,0.004264651916648195,0.08693912552792815,0.007652216399406909
355,4.029313590913666e-05,0.003282739526852498,0.07216223426601243,0.006347687445766071
356,6.360608092039881e-05,0.004291879555701875,0.07981311094607735,0.007975342056639217
357,7.448898788606236e-05,0.0054914289838214995,0.0669343163204199,0.008630700312608567
358,7.262112824410016e-05,0.005535293370409353,0.06460084650895981,0.008521803109911645
359,5.496382781041077e-05,0.004222543396474905,0.08650759667918795,0.007413759357465724
360,6.392405821366853e-05,0.005635920116240224,0.060131241455947226,0.007995252229521459
361,6.177472853056641e-05,0.004737147674047056,0.0719625562004298,0.007859690103977768
362,6.678231745604199e-05,0.004100014716491907,0.12475047866693068,0.008172044876041848
363,4.390239657441213e-05,0.004331295525281282,0.06891554238247721,0.0066258883611491435
364,5.019729590421189e-05,0.004803004960341665,0.054909566787967545,0.007085005003824031
365,6.73298890610973e-05,0.005084419929701132,0.07284549415419517,0.008205479209716938
366,5.782677577672567e-05,0.0047876950878730645,0.07426631471997869,0.007604391874221437
367,7.45580597801987e-05,0.005300566770992803,0.06884399588261214,0.008634700908554865
368,3.340059918442567e-05,0.003474363573157954,0.0704883160866141,0.005779325149567662
369,5.23978330664811e-05,0.003765078532657222,0.08310099441193941,0.007238634751559192
370,6.899919248598075e-05,0.005451964596822104,0.06866578986861885,0.008306575256143782
371,7.485615808451029e-05,0.005286236895978058,0.060929575425374694,0.008651945335270549
372,2.9867348871255995e-05,0.003110239956342517,0.06183417849976802,0.005465102823484249
373,4.2133174244398225e-05,0.003545972912053328,0.06649160823886013,0.00649100718258716
374,8.69694085504877e-05,0.005545976404710755,0.06498210759804257,0.009325739035083856
375,6.174531852092798e-05,0.0043949287674602605,0.06171458798886231,0.007857818941724699
376,5.4515850876231414e-05,0.004304680291311137,0.07703498890057192,0.007383485008871547
377,5.440961910355284e-05,0.004290531259554893,0.07442116348332428,0.007376287623429026
378,3.942239506038228e-05,0.002683065891015761,0.07277281466718194,0.006278725592059421
379,6.24437783371444e-05,0.004688960994391042,0.0609653163450532,0.007902137580246509
380,5.135936610011031e-05,0.004276829297045269,0.08299088594664905,0.007166544920679
381,5.4528151540473756e-05,0.004960738150304985,0.0666656249628712,0.007384317946870457
382,5.4279346991484306e-05,0.0050161580752309115,0.06180957064697701,0.007367451865569502
383,6.905101064686089e-05,0.005349425049965038,0.08608943305011674,0.008309693775757335
384,5.754652908308632e-05,0.004758614907835829,0.06959344291816905,0.007585942860520776
385,5.647836672218095e-05,0.0035682354604380795,0.08479481308703107,0.007515209027178172
386,6.0411527767608595e-05,0.004687953279561143,0.07018584410733908,0.007772485301858613
387,4.644416167633175e-05,0.003554684598716946,0.0873531127760101,0.006814995354094645
388,6.508286439933397e-05,0.004447794440985644,0.08725906924097337,0.00806739514337392
389,4.211076662919709e-05,0.004004349561058438,0.07240150100705833,0.0064892809023185906
390,6.894057138057367e-05,0.004182974610557295,0.08211328703130638,0.008303045909819673
391,6.463544690319683e-05,0.005100610434286839,0.07547284730955628,0.00803961733561966
392,6.515089711925573e-05,0.004814649628095361,0.07446996686880336,0.008071610565386265
393,6.16564363102395e-05,0.005319934137131169,0.06283199539241108,0.007852161250906606
394,5.5865227441889806e-05,0.0046725880704027705,0.07011065473662881,0.007474304478805326
395,5.052253664701419e-05,0.003931919684825278,0.07821326149529995,0.007107920697856286
396,6.098675733165097e-05,0.005368947519196499,0.06581951773723893,0.007809401854921446
397,4.707031989610253e-05,0.0041315642307301,0.06395638645938417,0.006860781289044412
398,7.57070375806705e-05,0.005599861394010766,0.07373949031434446,0.008700979116206958
399,5.4403835706447696e-05,0.004961666332716959,0.058266474162425475,0.007375895586737064
400,5.368103020859194e-05,0.0032666007325235368,0.08502061421715723,0.007326733938706354
401,7.721968795148055e-05,0.005499557289063529,0.05936294691759825,0.008787473354240103
402,5.0532519314249694e-05,0.004220473092422164,0.07136744161211217,0.007108622884514941
403,6.24767449132075e-05,0.00413952641336781,0.06883692653352069,0.007904223232753929
404,5.4325427495962355e-05,0.004425462226312901,0.07955266872669275,0.007370578504836778
405,5.545564146804547e-05,0.004602945431389223,0.06681134023822821,0.007446854468031787
406,7.14588487195423e-05,0.003447082465026325,0.08132238513641177,0.00845333358619791
407,7.738725451355611e-05,0.005927679805093462,0.06134536736032947,0.008797002586879009
408,3.6086736341593046e-05,0.0034467922015884245,0.0721977437479917,0.006007223680003322
409,5.747548977354739e-05,0.003740428618550548,0.07139687669720662,0.00758125911531502
410,5.492065608813122e-05,0.0048920746081660225,0.06687846745747716,0.007410847190985051
411,5.126394534705456e-05,0.004573376928129943,0.06597864176938528,0.007159884450677569
412,4.159649309582287e-05,0.004459508543000179,0.0458399224815782,0.006449534331703532
413,4.409451891645137e-05,0.0040513778810549106,0.08579472918065134,0.006640370390004689
414,7.957837079062252e-05,0.003768131169740683,0.08880193811516968,0.008920670983206463
415,6.667304833122108e-05,0.005202603816285217,0.07349520568303358,0.008165356595472148
416,7.143179205125035e-05,0.004349832432698525,0.06817410385769307,0.00845173307974466
417,7.22202508666456e-05,0.0050601601762101656,0.06506419990634793,0.008498249870805448
418,7.221281431236758e-05,0.005843193657806332,0.07196435020167158,0.008497812325085048
419,6.337581493021465e-05,0.004734345296283419,0.08976008666189748,0.007960892847552596
420,6.204169499792539e-05,0.004548156146186727,0.08706098332344969,0.007876655064043692
421,5.2443865626267246e-05,0.004136199298069169,0.08735612571605467,0.007241813697290665
422,8.26765422596577e-05,0.0053056398863443556,0.06940227968347878,0.009092664200313186
423,5.039828235872488e-05,0.003410343056653168,0.07634378093317995,0.007099174766036156
424,6.832054234165659e-05,0.005613936905517464,0.06071805819774578,0.00826562413503398
425,5.737187608361025e-05,0.0048728237489827,0.06198530849701589,0.007574422491755358
426,6.298873696253214e-05,0.004499455725317546,0.08637743483270333,0.007936544396809717
427,4.620490760921723e-05,0.004449547949100844,0.06812302884415544,0.006797419187398762
428,5.53099578308992e-05,0.004576167430884957,0.07788117504379066,0.007437066480198959
429,5.054034760609533e-05,0.004450789303627689,0.08066929770820241,0.007109173482627588
430,3.417613760349631e-05,0.0031900966617731505,0.06870715873564404,0.005846036059031451
431,9.33715187115126e-05,0.006300262330145233,0.059254940430099795,0.009662893909772168
432,5.2431528042735303e-05,0.004626944153587074,0.07584622909135863,0.007240961817516691
433,6.02734766475029e-05,0.003789071623073183,0.08315910983597385,0.0077635994646493055
434,3.610836708086566e-05,0.0035016166893034745,0.07733602681627882,0.0060090238043184335
435,5.8633693519240414e-05,0.003977428313400399,0.0981925878748342,0.007657264101442484
436,5.949003428481601e-05,0.004930244044513946,0.06141118654143707,0.007712978301850438
437,5.020948293115608e-05,0.0035751006338709157,0.08536240605147771,0.007085865009379977
438,4.8610167696264905e-05,0.004817544240215133,0.049211838234044514,0.006972099231670825
439,5.2507085541411964e-05,0.003125714565230498,0.07845415166298819,0.007246177305408098
440,5.6224685665431546e-05,0.004014198125697803,0.07402799672199667,0.007498312187781401
441,4.8600629637180897e-05,0.0040158597819909495,0.06886889389694795,0.006971415181810685
442,7.027828644949725e-05,0.0058027886881999655,0.04660638076348489,0.008383214565397744
443,3.985067071129258e-05,0.0031987636285768788,0.07498872332404583,0.006312738764695731
444,6.499705706108326e-05,0.005121567914493103,0.06936507468718789,0.008062075232908889
445,7.651308993695592e-05,0.005309486846971661,0.07082359569878682,0.008747176112149323
446,5.4976998050425735e-05,0.004720517626750663,0.06061136547912582,0.0074146475337958815
447,6.819694713240157e-05,0.005548734138539741,0.06575836996226037,0.008258144291086287
448,4.428012975322948e-05,0.00349526234830775,0.0915099421409673,0.006654331653384081
449,6.81858229895103e-05,0.005537145156381446,0.050905080168952455,0.008257470738035332
450,5.537153738971855e-05,0.005015428951256308,0.06983334724815204,0.007441205372096522
451,7.104349361304091e-05,0.005310406535702071,0.0701444159504786,0.008428730249156205
452,4.251172962160719e-05,0.004258767395650429,0.06713278243339271,0.006520101964049861
453,4.26945579107472e-05,0.002715373147797119,0.10381989769782152,0.006534107277260358
454,7.750833577655014e-05,0.005501788201427371,0.07417657634933206,0.008803881858393434
455,4.9341955580187496e-05,0.0033960487481185194,0.06764712457238103,0.007024382932342678
456,5.3999235537514e-05,0.004405090827890843,0.08073724064749754,0.007348417213081556
457,7.242590378262208e-05,0.005384732621702231,0.06780032894088217,0.008510340990972212
458,6.352632356422244e-05,0.0046409028126392846,0.06964382759801357,0.007970340241434002
459,7.20017429224317e-05,0.004086821134791511,0.08446960140232918,0.00848538407630619
460,4.993369162964222e-05,0.004092307540042132,0.058640601493652245,0.007066377546497352
461,7.657880265410147e-05,0.0056952465600983845,0.07228338849334426,0.008750931530648643
462,5.285212431033361e-05,0.0047791948916524885,0.05003430655493091,0.007269946651133903
463,6.627704847890294e-05,0.004681115603114961,0.07518008898570505,0.008141071703338713
464,6.118828704735257e-05,0.004327336713067357,0.061106425447444046,0.007822294231704186
465,5.328153280121106e-05,0.004762798978213548,0.06251085079513485,0.007299420031838877
466,3.9304559945704714e-05,0.0038537110919383945,0.06673443222655617,0.00626933488862292
467,4.333166075398894e-05,0.00421716664812137,0.08356718649005135,0.006582678843296896
468,4.952922825969591e-05,0.004122487843624148,0.06372600145072393,0.00703770049516854
469,6.39672344032856e-05,0.005142807443547066,0.05351068007091064,0.007997951888032675
470,5.478513611285168e-05,0.004630276862826721,0.05388481943161816,0.007401698191148523
471,6.1253517293191e-05,0.004156090998263543,0.08391855949578053,0.007826462629642502
472,4.7690388749009735e-05,0.004315396700764412,0.06363463926003288,0.006905822814770843
473,4.560507903677957e-05,0.0043198693301225895,0.08471638879020738,0.006753153266199357
474,7.016504935389329e-05,0.00563296031347291,0.06605437356589094,0.008376458043462771
475,5.040203621266744e-05,0.0047214927991234175,0.06462779280608322,0.00709943914775436
476,6.818325044940679e-05,0.00553137480531664,0.06050889591897002,0.008257314966101654
477,4.6686553577165614e-05,0.0032169084480903496,0.06948701066944185,0.006832755928405862
478,6.17220127928842e-05,0.002970963818931107,0.08623670699365249,0.00785633583758255
479,6.518705983781444e-05,0.004236780483685951,0.07350664846925326,0.008073850372518315
480,3.88969485076598e-05,0.004223388425158437,0.05947988773476043,0.006236741818262117
481,8.240376416008497e-05,0.00609474115627312,0.059031552951960276,0.00907765190784953
482,5.444078720363861e-05,0.004389542762951487,0.07328952423186674,0.007378400043616397
483,4.037982560402419e-05,0.0034901782131378485,0.06187898745966569,0.0063545122239259165
484,6.237251289729476e-05,0.0051807729022628176,0.061625161260593586,0.007897627042175039
485,4.467224173724576e-05,0.003408999855333794,0.08024347897382444,0.006683729627778602
486,5.287278520756869e-05,0.004114241204001317,0.06892463492334322,0.0072713674922649935
487,5.599455931789934e-05,0.0046173823190207835,0.07028543654937636,0.0074829512438541685
488,6.679683235269105e-05,0.005639180216562816,0.04817459441321725,0.008172932910081327
489,5.880865936844256e-05,0.005043402196679415,0.0752828411157278,0.007668680418979657
490,6.255158539851943e-05,0.005095577837399469,0.07882982730668786,0.007908956024566009
491,5.625934727314942e-05,0.003956362452654674,0.06587726148982265,0.0075006231256575405
492,5.379523057589689e-05,0.003837525362527272,0.06331545015407847,0.007334523200310701
493,4.1046701084576223e-05,0.003748465776337444,0.08287010001379436,0.0064067699415989434
494,5.7173063706234064e-05,0.005024230454288106,0.0659281233554494,0.007561287172580742
495,6.717550904468724e-05,0.005080197965855725,0.06622604901611284,0.008196066681322616
496,6.619717977171901e-05,0.004882062642798324,0.08253543082944503,0.00813616493021853
497,7.043519362983805e-05,0.004599606732776538,0.0829656611855869,0.008392567761408757
498,3.375028032930853e-05,0.0036583310849465866,0.0447717565805128,0.005809499146166398
499,5.367502541230487e-05,0.004722092295384997,0.054721168141554255,0.007326324140543075
500,6.258061681756613e-05,0.00520441724055285,0.06760063777589542,0.007910791162555449
501,3.7950221091619826e-05,0.002943816664315473,0.08087537227058217,0.0061603750771864
502,8.085836791499735e-05,0.00473054679323823,0.08586581380962688,0.008992128108239843
503,6.353525599926487e-05,0.004913172171663075,0.07140718200471907,0.007970900576425754
504,6.264840231556441e-05,0.005178703605087767,0.06687679016845349,0.007915074372080395
505,4.461048440822352e-05,0.00420786221308605,0.06864547546555055,0.006679108054839608
506,5.22579666025374e-05,0.004620055431923073,0.06488153075346847,0.007228967187817164
507,5.935411824523456e-05,0.0044678847682571125,0.0758205283353055,0.007704162397381957
508,4.480245219712957e-05,0.0031747632949803645,0.08864695518800492,0.006693463393276238
509,2.86929702984105e-05,0.0037462808425811575,0.02866109672684214,0.0053565819603932354
510,3.9055092088606534e-05,0.003740671581712733,0.07654896064161676,0.006249407338988723
511,4.368685975832431e-05,0.003700194565712192,0.07344422608253254,0.006609603600695284
512,4.940700893995267e-05,0.004234144668517083,0.060230491669374886,0.007029011946209232
513,6.714286631793547e-05,0.004319729955777319,0.07957128974751004,0.008194075073974802
514,4.348873406749744e-05,0.0036281069423180733,0.049735233797246314,0.006594598855692231
515,5.3440945473080825e-05,0.00420426514013948,0.08994733159395896,0.007310331420194308
516,3.558706259713975e-05,0.0041279671832030775,0.04242557600786068,0.0059654893007313045
517,4.8393239677146425e-05,0.0033201431584443273,0.07800396891253136,0.006956524971359328
518,4.9881368270847214e-05,0.004828688424672386,0.05635429062247299,0.007062674300210009
519,4.6889318783413374e-05,0.003842275481266107,0.07070100764249354,0.00684757758505976
520,6.095621129168462e-05,0.0038100931482323687,0.08157439466252003,0.00780744588784862
521,7.366164622557958e-05,0.004184440152225702,0.09613560795798914,0.008582636321409586
522,7.590311603927175e-05,0.004864568858873916,0.07527269039749279,0.008712239438816613
523,6.0070109178475755e-05,0.004867566331549522,0.08387373010890675,0.0077504908991930955
524,6.225277354780774e-05,0.0038417822308105917,0.08960968669584535,0.007890042683522525
525,4.462609635994991e-05,0.004471786758532636,0.06877961041544811,0.006680276667919476
526,5.848583340937587e-05,0.004263915112690987,0.07546734643259989,0.007647603115314978
527,6.3430407982977e-05,0.0035584945575554638,0.07838670546762727,0.007964320936713726
528,5.9417130751935995e-05,0.0047863046166116505,0.058671885035409876,0.007708250823107364
529,4.9558791019424626e-05,0.004309424753916846,0.07704643715113679,0.0070398004957118
530,5.360455274025013e-05,0.003513419890234555,0.09266463461466756,0.007321513008951753
531,5.6636232524163516e-05,0.004475742160218269,0.05655376258045974,0.007525704785876403
532,6.940467091837605e-05,0.004836174722457715,0.08062583711085636,0.008330946579973735
533,7.532497175827536e-05,0.005534900835492738,0.0646307022335244,0.008678996010960869
534,7.307296020699337e-05,0.004428024601193349,0.06294897042789671,0.008548272352176959
535,4.860582207028454e-05,0.003875367159912516,0.07752958311156066,0.006971787580691491
536,4.6813293606102864e-05,0.0032607172927371798,0.0782843786811811,0.006842024086927977
537,8.004195734926308e-05,0.006297663943371007,0.05957195865072107,0.00894661708967486
538,7.955568712525129e-05,0.005488092399394545,0.07217767311217327,0.008919399482322248
539,6.830630380817597e-05,0.0045683619064169735,0.08157787531046967,0.008264762779909373
540,7.410643784960852e-05,0.005734326126028908,0.05779818576998119,0.00860850961837228
541,5.0496288994425496e-05,0.004267565628755396,0.06520791571983967,0.007106074091537816
542,4.575653071458352e-05,0.004330663876818161,0.058500879612308765,0.0067643573763206295
543,4.004717173118919e-05,0.004028688945849774,0.06395604031792956,0.006328283474307139
544,4.693146459266659e-05,0.004573896633086944,0.053200462234908485,0.006850654318579092
545,5.3416749686357296e-05,0.004450460530907085,0.08345715251606922,0.007308676329292252
546,5.9752445883513766e-05,0.003968300723348312,0.06550440491680476,0.0077299706263033756
547,6.147029320206403e-05,0.004416807064309643,0.0707047639335252,0.007840299305642858
548,4.4298513125593165e-05,0.004266695642495683,0.06114234916998296,0.006655712818743966
549,5.035925603914387e-05,0.00461666383234656,0.07361382503840463,0.007096425581878758
550,5.11742283176519e-05,0.004744435909149663,0.06823244648890903,0.007153616450275445
551,5.305811633350461e-05,0.005058727580523883,0.05292538536692959,0.0072841002418627026
552,5.998662957968499e-05,0.004935352018966701,0.05967668071614751,0.007745103587408268
553,5.9486866529976875e-05,0.004588509389157515,0.06580481378417402,0.007712772946870436
554,8.395843810862751e-05,0.005691720064057403,0.06172884421697167,0.009162883722312894
555,6.801479424191998e-05,0.0052780394602232415,0.07116008825020714,0.008247108235128213
556,6.423871722024267e-05,0.0052417886647464496,0.07475732449962269,0.008014905939575446
557,6.058472830208075e-05,0.004906523590063437,0.0946045052634239,0.007783619229001397
558,5.1582324408369134e-05,0.0045808352155746225,0.06648526239724895,0.007182083570132614
559,7.186031241746895e-05,0.005167241069795434,0.0645007924096257,0.008477046208289088
560,6.256845779213732e-05,0.003856660620734782,0.08439687135378326,0.007910022616411225
561,5.915501617010155e-05,0.005040990550447558,0.06872252064033066,0.007691229821693095
562,4.0959946857858164e-05,0.004458075017484551,0.04784865569977326,0.006399995848268812
563,5.4514864574709094e-05,0.004206339816588584,0.08049938413701385,0.007383418217513378
564,6.365204992033175e-05,0.004364753169866005,0.06830905825532252,0.007978223481473251
565,2.6832489810999215e-05,0.0028385354435157897,0.06494955504595001,0.005180008669008092
566,6.960369243796595e-05,0.0038273967445210427,0.0879846856380122,0.008342882741472832
567,5.719093839934474e-05,0.005089007612222005,0.06341687634706628,0.00756246906766197
568,3.562373624453289e-05,0.003669602009213662,0.0634007368901719,0.005968562326434464
569,5.985486120745957e-05,0.004228257821164749,0.10328639110203541,0.007736592351123261
570,5.46244895998854e-05,0.004070206056005651,0.07752863056214176,0.007390838220383745
571,3.7607405885910894e-05,0.003982811659507633,0.06403992783519108,0.0061324877403799724
572,6.748516360243119e-05,0.003085652106119252,0.08807939655538455,0.008214935398554923
573,3.780470229543802e-05,0.0032292142613180837,0.09084460435020691,0.006148552861888546
574,6.205659255668501e-05,0.004765626849466933,0.0637153049032988,0.00787760068527749
575,5.524300899486379e-05,0.004917302230290179,0.0691827152835871,0.007432564092886332
576,5.302169620041758e-05,0.003906393147992516,0.0708919449029537,0.0072815998379763495
577,4.94695782074958e-05,0.004379020595064255,0.08117371505795568,0.007033461324802694
578,4.069718638543409e-05,0.003050165671407958,0.07255837307794355,0.0063794346446557244
579,7.950831782086073e-05,0.004888379371694214,0.06867065946047435,0.008916743678095734
580,6.0163710322879244e-05,0.005140183521601888,0.0662279732924036,0.007756526949793868
581,4.330218219230136e-05,0.00349581396708269,0.06729653400131835,0.006580439361646053
582,5.3174361512976174e-05,0.004503465112879827,0.09051406448904364,0.007292075254204095
583,6.68864693127497e-05,0.00493364416061298,0.075903981674311,0.008178414841077055
584,6.16941123503112e-05,0.004439860045387695,0.05544199939412131,0.007854559971781397
585,6.620068987402048e-05,0.0052136013038799585,0.044227626102981255,0.00813638063723792
586,5.668161732517546e-05,0.0033330246485644534,0.07661554147415117,0.0075287195010290565
587,5.931494745577415e-05,0.0041211384689172,0.06510881869730101,0.0077016197942883155
588,7.626313323954448e-05,0.005352516203021031,0.07700425956777845,0.008732876573016688
589,4.529337987520369e-05,0.004044446499303907,0.06212159413259766,0.006730035651852331
590,6.43565231343777e-05,0.00583676232642737,0.06112174778240731,0.008022251749625982
591,6.931971795550561e-05,0.005564936777804038,0.05827163094655985,0.008325846380729383
592,5.646224454895613e-05,0.005021383011329503,0.06552229344249444,0.007514136314238342
593,6.219022272741259e-05,0.005026370296983719,0.061326437771691555,0.007886077778427798
594,6.95684320897233e-05,0.004883352251482412,0.07692444649438013,0.008340769274456827
595,3.478655984059468e-05,0.003937352956821168,0.046308380043972086,0.005898013211293642
596,5.58719574403252e-05,0.00483199817598917,0.068094887469893,0.007474754674256871
597,4.2997509384488706e-05,0.00470707613979823,0.0592211265376017,0.006557248613899599
598,4.40717963211824e-05,0.0036875235288528242,0.08655782662911715,0.006638659226167735
599,6.870012940749836e-05,0.004261943160333597,0.0891370842713326,0.008288554120442104
600,4.1437500306427434e-05,0.004023073547906944,0.06015321236165694,0.006437196618593149
601,6.519176584509147e-05,0.004666678475400236,0.06732915893041036,0.008074141802389316
602,8.060786396390458e-05,0.005202193172232986,0.07591156222499817,0.008978188233931376
603,6.873739567293077e-05,0.00487403652238844,0.0681309132571476,0.008290801871527894
604,6.215404954426469e-05,0.004269671654075832,0.07668844347930892,0.007883783961034466
605,4.830811998854642e-05,0.0034885461438224144,0.0720925770834262,0.006950404303962898
606,5.08115276765137e-05,0.004187157916794173,0.06801640515664065,0.00712822051261835
607,4.381963647199351e-05,0.00346947499192044,0.08343278749838208,0.006619640207140669
608,5.6525262232742314e-05,0.004330912999619884,0.08681863454731209,0.007518328420117172
609,6.810974974790415e-05,0.0050372630759845894,0.06606392109566706,0.008252863124268062
610,8.109025574748078e-05,0.005995115373418893,0.08262899808411062,0.00900501281217746
611,5.6804117115560095e-05,0.004891964044325581,0.06448047929322809,0.007536850609874092
612,8.366669540713946e-05,0.004863522280847741,0.07624936684911976,0.009146950060382896
613,4.5188911425628974e-05,0.0038774413529789214,0.07342232146789218,0.006722269812022479
614,6.62973464218522e-05,0.004486149139193841,0.08648511704697959,0.008142318246166222
615,7.0928766208739e-05,0.005369675783571871,0.06773035239890457,0.008421921764581912
616,4.924173866354263e-05,0.0039041164545071377,0.0824055131473811,0.007017245803272276
617,3.7844429492551704e-05,0.0031983137780526513,0.08164009186241872,0.006151782627218843
618,6.054568299811366e-05,0.003451085034706282,0.07440060840578866,0.00778111065324952
619,4.629795743760255e-05,0.00465337121967907,0.07637589834854674,0.006804260241760475
620,4.6483899789540126e-05,0.0041584635648108485,0.054539656031541206,0.006817910221581075
621,7.845041972556337e-05,0.005926215037533903,0.0629555286523874,0.008857224154641343
622,4.01927716077495e-05,0.003213625986432141,0.05740747967189708,0.0063397769367501515
623,6.292371371256957e-05,0.003965085605022877,0.07795230374084994,0.007932446893145213
624,6.458451305351734e-05,0.005598477086908673,0.0493041679874997,0.008036449032596238
625,4.958742828980175e-05,0.0042340171322646225,0.06786038349581458,0.007041834156652748
626,6.350772418141433e-05,0.004239338474650418,0.08206304107242368,0.007969173368763764
627,9.072185676350174e-05,0.006041521450744501,0.06177530022254496,0.009524802190255772
628,6.929878863529761e-05,0.004843360008592024,0.059338000015149994,0.008324589397399553
629,6.829747303326578e-05,0.004839553471618447,0.08709294299370995,0.008264228520150303
630,6.454768238049143e-05,0.0052643118122660156,0.06720131347390812,0.008034157229012307
631,7.003514408711416e-05,0.0049196730960306845,0.06351717625267606,0.008368700262711873
632,7.392436420028903e-05,0.004575723872241758,0.07811820438769335,0.008597927901552109
633,5.7986174107240246e-05,0.0031699255924693384,0.07608907918963403,0.007614865337433081
634,6.38708800189175e-05,0.0036756820207580827,0.08107971568496275,0.007991925926766145
635,6.345173959884931e-05,0.005432011428719864,0.05141196418873761,0.007965660022800913
636,5.688388836475474e-05,0.004958057369508836,0.05631871661442478,0.007542140834322443
637,4.651477925522286e-05,0.004580248650623622,0.05897555551535505,0.006820174429970416
638,3.976006741291467e-05,0.0031414437616844432,0.08904723512007381,0.006305558453691023
639,6.649287692899167e-05,0.005419242536682449,0.06334303858627366,0.008154316459948756
640,4.881685795022732e-05,0.004106493089282841,0.07745973255230965,0.006986906178719365
641,4.8765644595321494e-05,0.0038595668190091006,0.08086629074148477,0.006983240264756846
642,4.471186114008348e-05,0.004230417821612201,0.05363574666170967,0.0066866928402673905
643,6.0304325642353175e-05,0.004127070291606791,0.06907786458194831,0.007765585981904579
644,2.5872492566348094e-05,0.0030235812008268916,0.044216794229267276,0.005086501014090911
645,6.118072465136365e-05,0.004780728196364448,0.06620757345393224,0.007821810829428365
646,6.210051987420981e-05,0.004978306291621551,0.07017030786515166,0.00788038830732402
647,4.9315725308460534e-05,0.003534880184999036,0.073736817816072,0.007022515596882657
648,3.988275133490851e-05,0.0037356003637640054,0.07150842655504608,0.006315279196908731
649,8.012159372790677e-05,0.004920420680863911,0.06972040769998356,0.008951066625151773
650,6.864937701111227e-05,0.005703740641596508,0.05964836304475152,0.008285491959510428
651,6.220423591940047e-05,0.004923325585808594,0.06195033866198574,0.007886966205037269
652,7.020182372434863e-05,0.005354897287566615,0.07677544533888847,0.00837865285856551
653,6.222927847589221e-05,0.004430520659364575,0.0708186144004932,0.00788855363649711
654,5.8374094532553674e-05,0.003801909024641472,0.07831649564222687,0.007640294139138456
655,3.5602315710329186e-05,0.0036949110028424827,0.05406672797709433,0.005966767609881312
656,6.518579749846738e-05,0.004138579595633832,0.0828385519107846,0.008073772197583158
657,4.285072553796224e-05,0.00407008787400412,0.05695592103921365,0.006546046557882244
658,3.6710708284592834e-05,0.003219473553789833,0.059883134537723315,0.006058936233745367
659,6.985814910851166e-05,0.00526880256200028,0.06603731842359695,0.008358118754152209
660,4.7060082664913136e-05,0.0035021670772426945,0.0868744466156044,0.0068600351795681585
661,6.121419533916287e-05,0.004507023704372797,0.07387560416967931,0.007823950110983727
662,5.4341648723538545e-05,0.004466376115838244,0.07660150101721186,0.0073716788266674944
663,7.74084110364097e-05,0.004708908274008767,0.07719693486429069,0.008798204989451466
664,7.951704269415957e-05,0.005498132325671424,0.06300710697637346,0.008917232905680953
665,4.543672005511938e-05,0.003950566282436078,0.06939240142500314,0.0067406765279991775
666,5.602956997820379e-05,0.0040005681642201725,0.0799297471396141,0.00748529024007775
667,5.007032668038135e-05,0.004331666486118999,0.06798043744968718,0.007076038911734512
668,6.112240391869424e-05,0.00497006230586757,0.052640423752185805,0.007818081856740424
669,3.848925479784045e-05,0.0037166581911584856,0.0669040403468264,0.006203970889506179
670,5.381008281761837e-05,0.0032136941058877096,0.08476258966660755,0.007335535619000021
671,7.389492222636452e-05,0.0057484991051764646,0.06899246174911686,0.008596215575842898
672,6.691755824350009e-05,0.004764269840778378,0.07201949342866687,0.008180315289981154
673,4.8007382502429866e-05,0.004512542892818049,0.05754568893537759,0.006928735996011774
674,7.004244602140428e-05,0.004178610957255873,0.09692673107470862,0.008369136515878084
675,6.974627960404454e-05,0.0039084468079162715,0.08140010600211078,0.008351423806995072
676,3.269568350620464e-05,0.0030772697876975197,0.09062522923115779,0.005718013947709854
677,5.970060607122766e-05,0.005163466344628984,0.05842321647344062,0.007726616728635299
678,5.0567128730027525e-05,0.0036310087756684633,0.07299671982476807,0.007111056794178145
679,6.464805993869407e-05,0.004335477042569067,0.07745549905209326,0.00804040172744457
680,4.909084129373669e-05,0.0037676818694986508,0.07772522579711927,0.007006485659282853
681,6.282259260325453e-05,0.004348619594021477,0.07202689896224812,0.007926070438953594
682,4.464736955322618e-05,0.004080813424383428,0.08444469621585071,0.006681868717149857
683,5.947446238137736e-05,0.00457406663341378,0.06371403634813999,0.00771196877466298
684,4.7697423431121276e-05,0.00418774916566806,0.06019023758006892,0.0069063321257467
685,7.639541549619641e-05,0.005102146836785298,0.07562394238173509,0.008740447099330547
686,6.38427182168419e-05,0.00457415869729673,0.06627205119397139,0.007990163841676914
687,7.598763509237871e-05,0.0058428081985575885,0.05204060780361214,0.008717088682144856
688,3.69587337630188e-05,0.0030485970775361434,0.06561793127850823,0.006079369520190273
689,6.222889283256886e-05,0.004554241727248683,0.06671778663889039,0.007888529193237981
690,4.991015616494773e-05,0.004072887394807874,0.05935034810158779,0.007064712036944415
691,6.45238508194321e-05,0.005220337642558813,0.07428287470609507,0.008032673952018211
692,5.0393481386325757e-05,0.0029092169458005395,0.07777160625287394,0.00709883662203359
693,7.211542409082788e-05,0.005480695607221807,0.06277606449676626,0.008492080080335309
694,5.2525118415840965e-05,0.0038538770520385734,0.0875950456280763,0.007247421501185107
695,3.067842138511447e-05,0.0038489988903967123,0.04325106649898869,0.005538810466617769
696,6.526524492518334e-05,0.005526248149964738,0.05196784133363963,0.008078690792769759
697,4.738279318683856e-05,0.004202912939542111,0.07863409400230026,0.006883516048273448
698,6.110327475992643e-05,0.004428294112387194,0.07725065419653698,0.007816858368930969
699,5.118924890941668e-05,0.004362976576176967,0.06603822886321908,0.007154666233264573
700,6.503859371983088e-05,0.003909380818842971,0.06834304292762106,0.008064650874019898
701,5.798000930892966e-05,0.0035403449394385495,0.07403889181324752,0.007614460539587098
702,6.415972212341867e-05,0.005608459775280698,0.05767673629465542,0.008009976412163666
703,6.677742732725542e-05,0.005722122239240694,0.07112902722914782,0.008171745671963531
704,5.99446624012312e-05,0.0044805394468036145,0.07851226502114805,0.007742393841779884
705,6.947957771313817e-05,0.005106640096230687,0.05848201912336423,0.008335441062903494
706,5.540650191185528e-05,0.003333881184801967,0.08515488652535819,0.00744355438697502
707,4.766464882260534e-05,0.004005625681215979,0.07606567205230785,0.0069039589238787235
708,7.280086242786577e-05,0.004308780697910674,0.08960162218691003,0.008532342141983376
709,7.076856138491417e-05,0.005641847098755559,0.07184468706997624,0.008412405208078906
710,5.080375762960257e-05,0.0035035979737359723,0.0695975339457564,0.00712767547168092
711,5.402596853778173e-05,0.0030752163856412407,0.08852892073279484,0.007350235951163829
712,5.1057918316643576e-05,0.005193618916221993,0.06113026909138197,0.007145482371165924
713,3.5682977481776925e-05,0.00305666216400055,0.056409442190847425,0.005973523037686962
714,4.3800148549172794e-05,0.0030621448596390897,0.0741035867408848,0.006618168065950912
715,4.5540138039072815e-05,0.004649295323216233,0.06978787231680972,0.0067483433551555495
716,6.04175183639202e-05,0.004835345977690035,0.06935019906179618,0.007772870664299
717,6.953112177062323e-05,0.005044670152420034,0.07893243713027953,0.008338532351116892
718,5.4683223278819944e-05,0.003955605336935479,0.07363629609661881,0.007394810564092887
719,4.298731934563659e-05,0.004274935823007243,0.0717607063402319,0.006556471562177051
720,7.282957436476349e-05,0.00549052533937241,0.09168580115851976,0.008534024511610196
721,5.943509360218817e-05,0.004708191270602202,0.0874876910792044,0.007709415905383984
722,6.29510209020534e-05,0.005122888238049116,0.045729998895025714,0.00793416794012157
723,6.0463852586889306e-05,0.004285315064917472,0.08344426650772263,0.007775850602145643
724,4.447813284594799e-05,0.004178108402420515,0.05058949125657941,0.006669192818171295
725,5.7593735088512584e-05,0.004624566666365078,0.08837670615996807,0.007589053635896405
726,5.874461287353724e-05,0.004479154022461819,0.07724725187905035,0.007664503432939197
727,5.317284369413443e-05,0.003218069520163916,0.08603701971797495,0.007291971180286841
728,5.232424431548356e-05,0.004966584962866434,0.05978904822163089,0.0072335499110383296
729,6.651824115261855e-05,0.0053067070497454715,0.05305550386644109,0.008155871575289655
730,7.039781428909812e-05,0.005364502787228876,0.05188493711305919,0.008390340534751699
731,6.31099511955876e-05,0.0051908662361088214,0.0721863336978692,0.007944177188078543
732,4.354854468587003e-05,0.003835690120224359,0.08579473651241365,0.006599132116109643
733,5.466529617591175e-05,0.004497150622364722,0.06341758569468858,0.007393598323949673
734,5.772290925577915e-05,0.0036167910477308794,0.09749368047251683,0.00759755942759113
735,5.606487131736645e-05,0.004459429757400602,0.0679265144839265,0.007487647916226168
736,7.164244559726127e-05,0.005015594178804842,0.07304356066913043,0.008464186056394334
737,5.219812560711759e-05,0.0046097921079795625,0.05479447644898894,0.0072248270295639004
738,5.7385547476752586e-05,0.004507020409121043,0.05666004762769461,0.007575324908989202
739,7.293351179110342e-05,0.005196786141913357,0.06738296453140968,0.008540111930829866
740,6.485176438798637e-05,0.004252088440793769,0.061349220678145855,0.008053059318543858
741,7.192033242599395e-05,0.0036993783418584453,0.10435093432298936,0.008480585618104046
742,5.2473421572736075e-05,0.004114024480272722,0.06513892126373255,0.007243854055179175
743,6.585786189548581e-05,0.005342005159782199,0.05984153633122035,0.008115285694015038
744,6.366354648522788e-05,0.005090167142130613,0.07864729173224827,0.00797894394548724
745,5.939135925146377e-05,0.004016763261495571,0.07360237478810538,0.007706578959010508
746,4.759008748829288e-05,0.004432949887478124,0.058086448946612634,0.0068985569134633225
747,6.513715169891486e-05,0.004984204141963758,0.07043084494637997,0.008070759053454305
748,5.1547409472274575e-05,0.004759067903811902,0.056746205139098116,0.007179652461803029
749,5.3853353635654554e-05,0.004392502044991963,0.07191767140438388,0.007338484423615975
750,7.081283464635968e-05,0.003771878065878953,0.07628689534028332,0.008415036223710454
751,5.48253015962783e-05,0.004359081820730646,0.061817997497809585,0.007404410955388541
752,6.111322221213835e-05,0.005062809724613541,0.0645887636992093,0.007817494625014968
753,5.443120100304582e-05,0.004589504802135595,0.06597946201650728,0.007377750402598695
754,6.15444829175196e-05,0.0043359219037322665,0.06841109565912795,0.007845029185256033
755,5.9051863621444196e-05,0.003554824824098904,0.07935359415161436,0.007684521040471164
756,6.686258985173187e-05,0.0037695945739229103,0.07650410147323061,0.008176954803087248
757,6.032391194903352e-05,0.003938434909431096,0.07576298301997308,0.007766846976027848
758,6.494938305611002e-05,0.0048912876681045684,0.054029190481385214,0.008059118007332413
759,7.605449278920666e-05,0.004856757452304896,0.08281155593680278,0.008720922702856976
760,3.9798167339497627e-05,0.00404209963096478,0.05935145130756814,0.006308578868453422
761,3.0702208645816694e-05,0.00326146272494459,0.059099984261650196,0.005540957376285851
762,7.113572934434726e-05,0.005610657160543351,0.05818543900965878,0.008434199982472954
763,5.524716001227e-05,0.003293548856360462,0.0901033968754803,0.0074328433329560895
764,5.819534895832593e-05,0.004687299684688408,0.08261669535665828,0.007628587612286159
765,4.118924240037808e-05,0.003708684214151275,0.07200440575774256,0.006417884573625313
766,3.216989733780416e-05,0.0022144875244425074,0.07668330207289475,0.005671851314853351
767,5.344315451038247e-05,0.004114193597064032,0.06162028882769244,0.007310482508725533
768,4.619313650653886e-05,0.003766218383937589,0.0742780584897682,0.006796553281372725
769,7.906786755839878e-05,0.004665018658475149,0.09221870668577647,0.008892011446146353
770,4.465410613183553e-05,0.0034041302654588368,0.07283156345866493,0.006682372792042873
771,5.65826553179944e-05,0.004295928904141676,0.07634896019927973,0.0075221443297768375
772,3.403946924476129e-05,0.003276466406620578,0.06641942901743736,0.0058343353730104415
773,4.881651425758894e-05,0.0035545275056290556,0.0566757635468802,0.006986881583194934
774,5.413294136483321e-05,0.004301172453497673,0.0679413805976039,0.007357509182110005
775,5.492368774941931e-05,0.0046931090523005935,0.0693585279773834,0.007411051730315936
776,6.079012200864807e-05,0.004657024231496607,0.0747469665860172,0.007796802037287331
777,5.422765806356905e-05,0.004199545456309772,0.08005797636083556,0.007363943105671613
778,6.482687478018433e-05,0.005036137614171054,0.07184743550504047,0.008051513819163681
779,6.634276286445238e-05,0.005457122873678379,0.06687797376335647,0.008145106682201994
780,4.382950900222524e-05,0.0036509897271772254,0.06948625829012123,0.006620385865055376
781,5.555061094939502e-05,0.0037639430435715145,0.08257428870106498,0.007453228223353582
782,6.162457448885824e-05,0.00516977451978056,0.06066315117238785,0.007850132131936237
783,6.408146557998178e-05,0.0046893378565380376,0.07639209526800483,0.008005089979505622
784,7.503679162101415e-05,0.00383897602586916,0.10087473394720181,0.008662377942632932
785,5.7676800755143584e-05,0.004429929328277724,0.07854600928695055,0.007594524392952013
786,2.756574961137301e-05,0.003837245977691641,0.05159564492250546,0.005250309477675842
787,5.5502400431745784e-05,0.00439111743992806,0.05613009696341287,0.0074499933175638175
788,5.316339385527342e-05,0.00497815660310902,0.061264153178875236,0.007291323189605108
789,4.896607570562339e-05,0.0040079324805607705,0.06650383151642991,0.006997576416561869
790,8.531400802002853e-05,0.004365981185540553,0.0831739651002108,0.009236558234538872
791,4.06551047335962e-05,0.004301253256003599,0.04473801426390889,0.006376135564242339
792,5.514540618712565e-05,0.0031212593537221682,0.06769944117633053,0.007425995299427901
793,7.155907042547846e-05,0.005266315705948914,0.07752368763020767,0.00845925944899894
794,6.957857427293715e-05,0.005399820411781643,0.06625016487348205,0.008341377240776028
795,5.4836138611108155e-05,0.003981939092233709,0.08235698117480794,0.007405142713756967
796,4.5435694342995183e-05,0.003424668272068207,0.06288389459514482,0.006740600443802787
797,5.2170940967348904e-05,0.004725389861851038,0.058552668370592365,0.007222945449562034
798,6.232064927227753e-05,0.004917968592630496,0.0761836923707957,0.007894342865133071
799,6.725208670142233e-05,0.005434872153683829,0.07462963960737667,0.008200736960872593
800,6.997627624400939e-05,0.005063575789099082,0.08199768688879772,0.008365182379602326
801,6.469204403987038e-05,0.0035793323103679407,0.0891160717849484,0.00804313645538047
802,4.898051927982008e-05,0.004897400251341329,0.07601349862331741,0.006998608381658461
803,2.6417662339893734e-05,0.0024344689173384673,0.056114084022472754,0.00513981150820665
804,6.090421579607618e-05,0.0038358055970617376,0.07688256085091427,0.0078041153115568284
805,5.969096445083523e-05,0.004444301389223191,0.06603871102537195,0.007725992780920439
806,6.250160254910065e-05,0.004462988812480169,0.0838217220276043,0.007905795503875605
807,7.777419371784212e-05,0.003716139127243689,0.08889129134030771,0.008818967837442283
808,4.444751157463792e-05,0.004100242626808415,0.07082679689258065,0.00666689669746258
809,7.742580437019275e-05,0.005901512081858565,0.06351787712707857,0.008799193393157817
810,5.6188181247709005e-05,0.004857328773758174,0.0698114378387622,0.007495877616911092
811,5.74055124361436e-05,0.00486718070172184,0.08752740139170423,0.007576642556973582
812,4.287302581494812e-05,0.004494860262828159,0.057471774151421684,0.006547749675647944
813,4.615356183751023e-05,0.004716801430686178,0.062206461808717695,0.006793641279719581
814,5.407339970394044e-05,0.004303762240813408,0.06660392011309113,0.007353461749675445
815,4.300728477345501e-05,0.004700843630670559,0.052865889022026546,0.0065579939595469625
816,5.624217699434837e-05,0.004025843455579979,0.07576336214515056,0.007499478448155448
817,4.9016094782528065e-05,0.0045566726895399125,0.07056336354741921,0.007001149532935828
818,6.832674296795847e-05,0.0035575032107121205,0.0829000850206863,0.008265999211708052
819,7.297015791326699e-05,0.005022009330441336,0.06320243569781286,0.008542257190770262
820,6.485570838377867e-05,0.004307276326899466,0.06824788835415152,0.008053304190441238
821,6.139860504663459e-05,0.004116632958465033,0.08689522676931238,0.007835726197783754
822,7.543594954517869e-05,0.0036025347166452606,0.08566504167789457,0.008685387126960886
823,4.879964030402803e-05,0.005019275042649744,0.04043846667836082,0.006985673933417415
824,5.379634024411192e-05,0.004498857267635534,0.07971045276406574,0.0073345988468430726
825,5.366284763472048e-05,0.004894740997385469,0.06254772906694428,0.007325492996018765
826,5.979355881774306e-05,0.004224159210270971,0.06813190123658686,0.007732629489232142
827,6.573520667397716e-05,0.005658631398863365,0.04799000823796362,0.008107725123237515
828,6.194289699543484e-05,0.0035502940500199798,0.07102903346594136,0.007870380994299741
829,4.710035974293014e-05,0.0026515340626361546,0.07371701136929154,0.006862970183741859
830,5.396120809416404e-05,0.004979014349287145,0.06932174290283122,0.007345829299280219
831,8.337702248986878e-05,0.0035155331182405527,0.09415825758450236,0.009131101931851824
832,7.36111681966442e-05,0.004661777065083313,0.06936392156579707,0.008579695110937402
833,7.256966827154322e-05,0.005181371000321472,0.0685274849910158,0.008518783262388058
834,5.791604194752766e-05,0.003980724285744907,0.07102555016826706,0.007610258993459244
835,7.621499645993346e-05,0.00548325583968004,0.07349440879659142,0.00873012007133537
836,6.743644814452555e-05,0.0046745503815595274,0.05856346978233917,0.0082119698090364
837,4.2901120692594544e-05,0.0027165472284043607,0.08864843665987454,0.006549894708512086
838,6.251481041361725e-05,0.0044728971484778775,0.06494687690856882,0.007906630787738652
839,5.5168979657264264e-05,0.004469669983042062,0.06647896866363634,0.007427582356141441
840,4.875944539869134e-05,0.004586768723074955,0.06304967693260077,0.00698279638817364
841,5.6977314072599566e-05,0.004391435955841579,0.07509450583041799,0.007548331873506817
842,5.983934658254893e-05,0.004024961427637151,0.06572278538611515,0.007735589607945117
843,4.956092396113277e-05,0.00475360688336416,0.06942920219002424,0.007039951985712134
844,6.601684298965749e-05,0.005172836098057375,0.07254211498539376,0.008125074952863926
845,6.556486871070969e-05,0.0037879409022573587,0.09046012920430169,0.008097213638697545
846,5.982002391269939e-05,0.004613523696210613,0.07285524428079837,0.007734340560946296
847,6.239769432107433e-05,0.005114079605176285,0.07358047435160064,0.007899221121165931
848,5.943762369698512e-05,0.002794259025710058,0.08620830035723248,0.00770957999484955
849,7.333086630360848e-05,0.005124377895981645,0.08456628202126293,0.008563344341062552
850,4.929314252132167e-05,0.00447614020740506,0.07489028104935658,0.0070209075283271735
851,4.669966943934096e-05,0.0034925309124000242,0.07017932690782835,0.006833715639338601
852,6.91228088405887e-05,0.004801545364193485,0.07888760483658519,0.008314012800121746
853,4.4709578801240994e-05,0.004421059332834367,0.06400498734750837,0.006686522175334535
854,5.986417368574445e-05,0.005109375087785064,0.057671119692522144,0.0077371941739718415
855,5.151623963950046e-05,0.004223551211199049,0.06725561220307491,0.007177481427318349
856,5.572904577819042e-05,0.003231086632045873,0.08329024316799558,0.007465188931178484
857,4.741233972858961e-05,0.003145140743434585,0.10185841815480923,0.006885661894733813
858,3.3017545401675475e-05,0.003370310470964255,0.06354951488283422,0.005746089574804359
859,4.620269723286856e-05,0.003467440252327386,0.08060638204179416,0.006797256596073763
860,4.088650982953661e-05,0.003587465335925266,0.06572094570518994,0.0063942560028150625
861,3.7459099793805084e-05,0.0035520873620199307,0.07575604710565198,0.0061203839580376805
862,2.7108519255882157e-05,0.00316136420472289,0.04403555517616775,0.005206584221529687
863,6.85471476567446e-05,0.005716994804713276,0.06220970567135442,0.008279320482789886
864,6.748075432059997e-05,0.0038075559560833273,0.07446992895195187,0.008214667024329075
865,5.596391877167749e-05,0.004809183301761176,0.07546895637337503,0.007480903606629148
866,5.81812838408197e-05,0.0049990072019278535,0.0645063770442853,0.007627665687536349
867,6.676780806083722e-05,0.005834791405252649,0.05655561808169374,0.008171157082129612
868,4.9298561430560504e-05,0.00460021788018386,0.07102753972240894,0.007021293430028391
869,6.0776553086275254e-05,0.0045266103837667895,0.07183169244061238,0.0077959318292475386
870,6.322984171633101e-05,0.005175860875301064,0.07156802791433847,0.007951719418863476
871,5.692248499136243e-05,0.004532061761818663,0.07795799963820382,0.007544699131931109
872,4.9599046675235885e-05,0.003926455273763238,0.10166516716351692,0.007042659062828161
873,5.59883140717904e-05,0.0037725611750862548,0.06669341698177367,0.007482533933888332
874,6.915412480256223e-05,0.004923047115048213,0.07084889928856697,0.008315895910998515
875,5.828527110090716e-05,0.0043676951443402025,0.07051192351436031,0.007634479098203549
876,4.917927677919667e-05,0.004052552664013514,0.06270371461585933,0.007012793792718856
877,3.480816368384694e-05,0.0032056295703945747,0.06528507394104732,0.005899844377934613
878,6.48327986281534e-05,0.0048384390501319255,0.06333175147875902,0.008051881682448718
879,3.102794175787674e-05,0.0032739396319060106,0.06270270287182594,0.005570273041591082
880,3.108490301575501e-05,0.003208657309600239,0.07669698224251142,0.005575383665341321
881,6.105561234326659e-05,0.004651894273402777,0.07734838673191669,0.007813809080292779
882,6.604285782020796e-05,0.005271297474241131,0.059520448736253506,0.00812667569306216
883,6.900800866639602e-05,0.005706190398911982,0.06499281934432177,0.008307105913998903
884,5.6071495666887775e-05,0.004725589343052751,0.060735425602851834,0.007488090254990741
885,3.969700905226474e-05,0.003057585950065388,0.0699420761782461,0.006300556249432624
886,5.044193586373179e-05,0.004134122070815032,0.06340161485824947,0.007102248648402238
887,7.866038170820978e-05,0.0046807621117923885,0.08495299943129686,0.008869068818551871
888,5.2637601107024485e-05,0.004363922947418405,0.07473851460190772,0.007255177537939645
889,6.146124506258357e-05,0.0053432677956773925,0.05858800825796351,0.007839722256724578
890,5.229806983568664e-05,0.0044361099903660415,0.0836489978791004,0.007231740443052842
891,4.8801040288788096e-05,0.004299931278700317,0.059248961053482874,0.006985774136685759
892,6.046325879562276e-05,0.004678199374525093,0.09030492961312175,0.007775812420295536
893,7.11047462962827e-05,0.00536008670142018,0.06627473638977932,0.008432363031575553
894,4.9489990274795304e-05,0.003698320849247002,0.0817958354178776,0.007034912243574558
895,3.919446621468571e-05,0.003578681277414889,0.06743584465324926,0.0062605483956827135
896,7.688017254366128e-05,0.005003392764973419,0.0781505052371293,0.008768133925965144
897,4.433100100370785e-05,0.004587064323250603,0.06335520135667672,0.00665815297238713
898,5.0767615740965834e-05,0.0030976961905681685,0.0937862277904723,0.007125139699750875
899,6.889923467866687e-05,0.00495876535673867,0.06824657825167901,0.008300556287301858
900,5.571882762498877e-05,0.004849759431729255,0.0641342658177273,0.007464504513026193
901,5.976459453627198e-05,0.0045506194340550025,0.0808784960704707,0.007730756401301954
902,5.61102041150416e-05,0.003727926174860614,0.06874219748787858,0.0074906744766436795
903,5.991760313018699e-05,0.004968423014001068,0.055002401228517295,0.007740646170067883
904,4.035615726002923e-05,0.0033411235651914116,0.08346246648297928,0.006352649625158695
905,7.032416824197866e-05,0.005179135770216902,0.07397671840554043,0.008385950646287981
906,6.485428453461596e-05,0.005497009148556701,0.06114287169235988,0.008053215788404995
907,2.672148459726303e-05,0.003306589457609395,0.04325938245936545,0.0051692827933150325
908,4.7821563435461836e-05,0.004470174534384235,0.07330110051293026,0.006915313690315247
909,7.485787202052544e-05,0.00495606687223199,0.08010552127411952,0.008652044383873944
910,4.145438197647683e-05,0.002834923957070876,0.07276649643555544,0.00643850774453805
911,5.135267185584016e-05,0.004647597617843316,0.059538782937633705,0.007166077857227075
912,7.952515351756399e-05,0.005682284649966431,0.06450601735201467,0.008917687677731437
913,5.9170189906840556e-05,0.004000123580483642,0.062243442909868885,0.007692216189554227
914,3.3780554557767896e-05,0.003319845286343449,0.05535447669477189,0.005812104142027012
915,5.683985266620826e-05,0.004144448159451656,0.0766648330267028,0.007539220958839703
916,5.327737916777003e-05,0.003581272182031603,0.08931037371789552,0.007299135508248199
917,5.002754763287214e-05,0.004263977626656418,0.0678434234437919,0.007073015455438506
918,7.98099764851974e-05,0.005362399070472867,0.06685713880703315,0.00893364295711423
919,6.88628852545927e-05,0.005127674167024355,0.06900436673545007,0.00829836642084407
920,5.177373447146699e-05,0.004623266475353142,0.060192325092427224,0.0071953967556672395
921,4.9145161746465225e-05,0.004413576424194978,0.06606773977716474,0.007010361028254175
922,5.2452217269599256e-05,0.002868735829899001,0.07759851927196171,0.007242390300832901
923,6.381645645655505e-05,0.0037228646880436097,0.0861199019437704,0.007988520292053738
924,5.5580687517798924e-05,0.0041999968601621985,0.07595819993829378,0.007455245637656647
925,5.558505202076738e-05,0.0052326393333994815,0.05842676067220598,0.00745553834546955
926,4.490409371643261e-05,0.004434244644997568,0.046842142236371176,0.006701051687342245
927,7.09663317276074e-05,0.005222892509243843,0.07290845090333553,0.00842415169186826
928,6.382667597298967e-05,0.004181055515553634,0.06210001673236576,0.00798915990408186
929,6.793306641246966e-05,0.005569904143144933,0.056595693110821244,0.008242151807172029
930,7.443262865563938e-05,0.004836244884115298,0.07760479684665755,0.008627434650905146
931,4.4919065759985823e-05,0.0035574174243192154,0.07052186977717745,0.00670216873556502
932,5.01759228262533e-05,0.004949445356099826,0.055228867705049645,0.007083496511346123
933,6.992465428024355e-05,0.005215147720039414,0.07812830175794172,0.008362096285037817
934,5.160673475744469e-05,0.0036919854029760927,0.08928070306702629,0.0071837827610141585
935,7.297416078726117e-05,0.005282271537321266,0.07948120837477468,0.008542491485934311
936,4.828212360292287e-05,0.004038775234849212,0.08424767929117838,0.00694853391751974
937,4.5139485711168716e-05,0.004171662982458278,0.09455294333530961,0.006718592539451108
938,6.020359885867328e-05,0.0037251451746171177,0.08606123533449617,0.00775909781216047
939,5.9805662614091655e-05,0.0043594920150175085,0.08200322749562183,0.007733412093900807
940,7.141149182989979e-05,0.004972189492765022,0.07830834537928488,0.008450532044191036
941,5.6322309930686943e-05,0.004849815440456944,0.05068991163523373,0.007504819113788586
942,6.026026616781138e-05,0.0041483232023430214,0.0733521629218894,0.007762748621964444
943,4.427691520652819e-05,0.0031478855795115234,0.08129340767695226,0.006654090111091642
944,3.262116161824761e-05,0.00303308318225383,0.08453204486459232,0.00571149381670394
945,6.931601405867435e-05,0.005180601072132722,0.07526653240178804,0.00832562394410618
946,7.702110228696706e-05,0.006087550215525022,0.06295615940340227,0.008776166719414955
947,4.64467703004838e-05,0.004427132884569488,0.07278055439467046,0.006815186739956828
948,5.747020399003511e-05,0.004221547903905696,0.07898940829688006,0.007580910498748458
949,3.7229850705038916e-05,0.0032043791457102458,0.0666624813336858,0.006101626890021919
950,3.906169294409299e-05,0.004468287014287038,0.05732417849156768,0.006249935435193951
951,5.491739578997331e-05,0.005336472368158585,0.06964264530397557,0.00741062721974144
952,6.058288258141978e-05,0.0044986122169245885,0.0785535647012861,0.007783500663674356
953,5.2009903957030014e-05,0.004404332803877071,0.06315053567373924,0.0072117892340964745
954,4.586035737700976e-05,0.0030658035653896624,0.06998933416864217,0.006772027567649827
955,7.564029884914083e-05,0.0054398026871316915,0.07891024734469543,0.008697143142960212
956,4.325604462386825e-05,0.004235882200425564,0.051002252162285266,0.006576932767169506
957,8.423916887413204e-05,0.005871797062657722,0.06788606704655997,0.00917818984735725
958,5.161979724878688e-05,0.004917083448746276,0.07313548256681601,0.007184691868743328
959,6.246078373685179e-05,0.0055334828411087835,0.05927738488308787,0.00790321350697621
960,5.0473953267450494e-05,0.004722586911689681,0.07201889688114571,0.0071045023236994
961,6.696270287008241e-05,0.004167543458924896,0.07755673862146495,0.008183074169899844
962,5.961292350061301e-05,0.004416657599857723,0.07322325694059995,0.007720940583932276
963,7.480516685575228e-05,0.0049428738724927755,0.06561789030477572,0.008648998026115608
964,3.7170222135772225e-05,0.0034262438477976652,0.06908776550788653,0.006096738647487848
965,5.740650365844023e-05,0.004619406567498269,0.05779080881721166,0.007576707969721409
966,6.714881030434328e-05,0.0034535895318174377,0.06368897550922292,0.008194437766213295
967,3.64997760353603e-05,0.003220317206722041,0.06093230957526058,0.0060415044513233585
968,6.255178115882837e-05,0.0048490616934924406,0.07507706561017002,0.007908968400419068
969,7.199156446720606e-05,0.005439626888686426,0.07192266582346551,0.008484784291141745
970,4.12553947039844e-05,0.003685070841810856,0.07796248284010598,0.0064230362527377925
971,6.163066629078183e-05,0.0054701648019564765,0.06702969167202344,0.007850520128678203
972,4.502861837520071e-05,0.004288494384475986,0.0602639724767301,0.00671033668121059
973,6.689011070445815e-05,0.005387398485926937,0.06101790231039583,0.008178637460143199
974,4.411180693868058e-05,0.004738379545439564,0.04842797229752849,0.0066416719987274575
975,5.884479250653695e-05,0.005259059575245249,0.06188900398467112,0.0076710359474152535
976,6.0233411271288466e-05,0.005323644581933335,0.052780545455280325,0.007761018700614501
977,3.8987295409740274e-05,0.004096071290255027,0.05269862507489753,0.006243980734254389
978,6.48535861721125e-05,0.004023227824714473,0.08131438435592653,0.008053172429056269
979,7.039122740383139e-05,0.0059569221302433134,0.07974402484341159,0.008389947997683346
980,4.043545555039822e-05,0.003705884161656219,0.07259113068435319,0.006358887917741414
981,4.8300669768304133e-05,0.0043936323492046216,0.06421237919785616,0.006949868327407639
982,5.4987296567792534e-05,0.004170736026206689,0.08748691673632569,0.00741534197241043
983,5.286568826395738e-05,0.004162296877848964,0.09109273433449916,0.007270879469772361
984,5.6171691805259625e-05,0.004376866132686196,0.07821949485054658,0.007494777635477862
985,7.490297578611557e-05,0.0036274974559593184,0.08519741742186149,0.008654650529404121
986,4.4860919844998043e-05,0.0037520065816249,0.07070772640082357,0.0066978294876025146
987,6.38283877775019e-05,0.004841981083433144,0.08348498547835881,0.007989267036312014
988,6.19302239095916e-05,0.005324834648598502,0.055713075225806666,0.007869575840513341
989,6.043255193809185e-05,0.003464227603297192,0.07967135403949749,0.007773837658331384
990,4.71133857080884e-05,0.003271266492482521,0.07962408176637448,0.006863919121616154
991,4.2535629061401675e-05,0.003349388064644579,0.07524958411258718,0.006521934456999797
992,8.127164341147231e-05,0.003972006276815407,0.08057199622902023,0.009015078669178191
993,4.251684660520636e-05,0.003997513996600659,0.06780563449019894,0.006520494352823718
994,5.244893288930615e-05,0.004251164854946532,0.08229870294936203,0.007242163550300805
995,6.789164560508604e-05,0.003942962032969486,0.07995574960667406,0.008239638681707209
996,7.018769775681425e-05,0.0056520838688212055,0.06599378279816326,0.008377809842483515
997,4.608661450429543e-05,0.0036691122642627323,0.06158851266400012,0.0067887122861626
998,6.844919756218858e-05,0.0047633986918213436,0.0827667017131084,0.008273403021863968
999,6.276231040376303e-05,0.005113784263365235,0.07459711562869353,0.007922266746567075
1000,7.003657336956541e-05,0.005385224031171752,0.0695138851896413,0.008368785656806176
1001,5.024829743918042e-05,0.003284858874976243,0.07460315242266558,0.00708860334898061
1002,5.6754758739031794e-05,0.004203686662198612,0.06916326107543735,0.007533575428641531
1003,4.986793036318076e-05,0.004693704405149809,0.0678556298025823,0.007061722903313359
1004,6.936779777877218e-05,0.004975272774265328,0.08493796561605205,0.00832873326375456
1005,5.8604171628891346e-05,0.003806343886506043,0.07343509358891964,0.007655336153879276
1006,4.629685438064084e-05,0.004567934848972647,0.07404456633031486,0.006804179184930429
1007,4.610210508365626e-05,0.004311268122233018,0.05356500900143435,0.006789853097354608
1008,8.431414402321353e-05,0.006329363500917009,0.06459961738052744,0.009182273358118503
1009,5.347806641147846e-05,0.0045495009586493645,0.06679572868877903,0.007312869916214723
1010,7.730476896474636e-05,0.005396441284577887,0.06588893996439538,0.008792313061120244
1011,8.859553469278095e-05,0.00572055796610849,0.07820418403377727,0.009412520103180692
1012,5.0955308960756775e-05,0.0035679191909043064,0.06199052922424131,0.007138298744151578
1013,7.245311208553445e-05,0.003922004552486425,0.08359219899988268,0.008511939384507726
1014,7.421216847712972e-05,0.004592337182473394,0.08187890912320395,0.008614648482505162
1015,4.204823264494674e-05,0.004014901429677228,0.08265283756203701,0.006484460860005745
1016,4.86843903856804e-05,0.004223113938467053,0.06121863892224244,0.006977420037928061
1017,5.700500698233918e-05,0.003900248831085936,0.07954518526970933,0.007550166023495017
1018,7.35478033576196e-05,0.005552333721667115,0.07165108796381148,0.008576001595010301
1019,5.520210607945527e-05,0.0047580963670678786,0.0594351647651874,0.0074298119814336485
1020,6.627783768680496e-05,0.005468778792697212,0.06417732133505716,0.008141120173956694
1021,7.394024863870849e-05,0.005052675185762306,0.06359106014395532,0.008598851588363852
1022,7.821669539329537e-05,0.005018885914624244,0.0839540906611358,0.008844020318457825
1023,6.350851101034423e-05,0.004710247997833095,0.07727945075953091,0.007969222735646405
1024,4.6979071848951456e-05,0.00344106004794388,0.08233681794404957,0.006854128088163443
1025,4.280808045904623e-05,0.004149972352717544,0.05237434999176127,0.006542788431475212
1026,5.610816546121088e-05,0.003972222713473141,0.07906177194909692,0.0074905383959506175
1027,5.544494864007546e-05,0.004254367244502748,0.07344243181496202,0.007446136490830324
1028,2.8504706505989918e-05,0.002654823222094726,0.060533383313209566,0.005338979912491674
1029,5.01156675084529e-05,0.004955617796989982,0.07185015799728323,0.007079242015106761
1030,6.091152676080897e-05,0.00516335142172762,0.056215483700513325,0.007804583701954176
1031,6.723029142840752e-05,0.0050729602605196185,0.06795313437899875,0.008199407992556924
1032,6.432529667974681e-05,0.003773635693730741,0.0887912936650701,0.00802030527347595
1033,5.856059412172903e-05,0.004363086056607555,0.08564465248328412,0.007652489406835428
1034,5.841181280405707e-05,0.005079940346888358,0.05826302495882274,0.007642762118766779
1035,7.091073170774136e-05,0.003632570773152087,0.07790684086696809,0.008420851008522892
1036,4.674917145098772e-05,0.0038088260849564464,0.08874526599540378,0.0068373365758157105
1037,7.912529950942033e-05,0.004643985052017266,0.08992609022021991,0.008895240272719988
1038,7.8418615892647e-05,0.005289131291341682,0.08073941962229103,0.008855428611458972
1039,5.584902718790727e-05,0.0037576093025031704,0.09142668427484912,0.0074732206703607236
1040,2.709049500311711e-05,0.0025472994936748808,0.051705627797682174,0.005204853024160907
1041,4.805786358854734e-05,0.0041935072291061255,0.04861459336856111,0.006932377917320064
1042,6.303803887269226e-05,0.005242393857438734,0.06533056134161708,0.007939649795343087
1043,5.890733602026435e-05,0.0035749019977091463,0.08092913598459495,0.007675111466308765
1044,5.5723330570138694e-05,0.00445054423252013,0.07523788268264808,0.007464806130780498
1045,7.413382785769027e-05,0.004320516616871625,0.06718686441485211,0.008610100339583137
1046,7.563728020702103e-05,0.0049203329191179306,0.07237392312038082,0.008696969599062675
1047,5.496314357589358e-05,0.0038888451775901146,0.06721591145600225,0.007413713211063195
1048,6.232203816614374e-05,0.004923292301387448,0.07846552252590988,0.007894430832311046
1049,6.715472193069785e-05,0.005279548466198891,0.06417314545721453,0.00819479846797332
1050,5.0774366720806695e-05,0.004298642189438487,0.07850046465869731,0.007125613427685101
1051,6.677747503322554e-05,0.005277291808011643,0.07059280715385086,0.00817174859092136
1052,6.813226581859526e-05,0.0038209702986883253,0.0981292311712425,0.00825422714847336
1053,7.545736351407113e-05,0.006206800615192477,0.05306468045074997,0.008686619797946177
1054,5.556248326486698e-05,0.0049469260707568664,0.06539115464126333,0.00745402463538098
1055,4.445437961911371e-05,0.003144131935969502,0.10537612173660271,0.00666741176312917
1056,4.961856083616582e-05,0.004115166019162872,0.07346333208298272,0.007044044352228727
1057,6.043507602282898e-05,0.004546136190003861,0.09018208193977806,0.007774000001468266
1058,5.3327533613169554e-05,0.004705581255800214,0.07197403663327262,0.007302570342911388
1059,6.279446580189297e-05,0.00489296123215022,0.07349080470605363,0.007924295918369816
1060,3.1327093620589884e-05,0.004148578274832196,0.03750198798333115,0.005597061159268281
1061,8.059880720875283e-05,0.005517053933347711,0.0822561842369316,0.008977683844330448
1062,5.320005491341976e-05,0.003975938553431182,0.06228442049495325,0.007293836775896449
1063,5.0313086748139275e-05,0.00471742228578638,0.06155686979610964,0.007093171839744117
1064,6.354010157427736e-05,0.004810343752401409,0.07015042956251216,0.007971204524679885
1065,5.735286938013543e-05,0.004950633769421781,0.057714756546586976,0.007573167724283877
1066,6.060369450587294e-05,0.004535901187668609,0.05952742479065526,0.007784837474595875
1067,4.835471317410551e-05,0.004336453526855488,0.07621950024245994,0.006953755328892812
1068,5.226015496117446e-05,0.0038380416972210347,0.08031546065848505,0.007229118546626124
1069,5.309325588643077e-05,0.003550460423608633,0.07925659180824549,0.007286511914930933
1070,3.807546330349951e-05,0.003658204085721806,0.08115449647607242,0.006170531849322172
1071,4.475894859526267e-05,0.0038697530412119922,0.09579245706443507,0.006690212896108922
1072,5.2086785213230675e-05,0.0040494411477899174,0.08042794987881541,0.007217117514162448
1073,5.24180062161041e-05,0.0038662262095035304,0.08349081487902188,0.007240028053543969
1074,5.72391669732876e-05,0.004819148231440077,0.06643512589538947,0.007565657074787833
1075,6.0422271949254354e-05,0.004367985685867258,0.08139187830490174,0.007773176438834628
1076,4.274417648758151e-05,0.0038918397665401424,0.070984740718945,0.006537903065018711
1077,5.984636521784563e-05,0.005259683197263929,0.06865890309476885,0.0077360432533592535
1078,7.415321809539612e-05,0.005240959896088342,0.056444484561085195,0.008611226282905083
1079,5.0301836408715784e-05,0.004288154795718564,0.06795887320662453,0.007092378755305958
1080,5.694637741685701e-05,0.004937609358446366,0.06813984358416314,0.007546282357350314
1081,6.375224070570825e-05,0.0041037128784982,0.07804549417161777,0.007984500028537034
1082,4.429252311993606e-05,0.0043131639996671954,0.07082625292996703,0.006655262813738891
1083,4.394377926357065e-05,0.0043849519955226,0.05017132567905003,0.006629010428681664
1084,6.0494229343552125e-05,0.005153517690093857,0.06693751925593583,0.007777803632359951
1085,5.73156125569222e-05,0.004493559273408065,0.07094221249128685,0.007570707533442411
1086,6.440435441401882e-05,0.004560167571266474,0.07628714262022251,0.008025232358880216
1087,6.294459096533804e-05,0.005182226104912998,0.05272128426595035,0.007933762724290255
1088,6.301878775401558e-05,0.0044928467699881765,0.07429823567436067,0.007938437362227869
1089,6.11582907426481e-05,0.0033264462862537623,0.08934578891129252,0.007820376636879307
1090,5.749383373861575e-05,0.003799973096639508,0.09070551044361963,0.007582468841915227
1091,6.737104321328227e-05,0.005157732500180651,0.06623425109264858,0.008207986550505648
1092,5.1003665362226306e-05,0.004502562509424706,0.07344987191750052,0.007141685050618364
1093,6.755427889906789e-05,0.005020136001678475,0.08766959681526099,0.008219141007372187
1094,6.421107614986934e-05,0.003971221920195751,0.06570879704876553,0.008013181400035088
1095,5.4850384622508307e-05,0.00464544626453348,0.08028924845143015,0.0074061045511461575
1096,4.719455806245101e-05,0.004403636195568131,0.05259815703612025,0.0068698295511934225
1097,7.707082420554453e-05,0.005393424210386343,0.07044329172915709,0.0087789990434869
1098,5.792001361953936e-05,0.003939257288447106,0.07683711173913732,0.007610519930959942
1099,6.692076121283787e-05,0.0053482261908118535,0.07046615423612357,0.008180511060614586
1100,7.010085170447253e-05,0.0050049776873354115,0.08326824281766831,0.008372625138179286
1101,6.2905505579397e-05,0.0048899762846954225,0.1188644347025658,0.007931299110448207
1102,6.834577717654801e-05,0.003515012486050393,0.090541206592885,0.008267150487111486
1103,5.027428867392015e-05,0.0031199032340236015,0.07688087797868448,0.007090436423374773
1104,3.375715686458657e-05,0.003960811291868806,0.05628087185603081,0.005810090951490035
1105,5.814683195795979e-05,0.0041008006194722686,0.07448202013759087,0.007625407002774308
1106,5.4071562283018795e-05,0.004491818524885643,0.07108587700302671,0.0073533368128366194
1107,6.922944730072296e-05,0.0044109878192010055,0.08379587618769535,0.008320423504889788
1108,3.742590995856113e-05,0.003912280817400884,0.0627683557585792,0.006117671939435846
1109,4.2723571561466786e-05,0.004056853744046305,0.06494325247360422,0.006536327069652072
1110,5.6169125414952265e-05,0.004509157965387927,0.07493696492734037,0.007494606421617579
1111,5.1799522419104114e-05,0.004039518629415375,0.0685419344107332,0.007197188507959457
1112,7.767271199282296e-05,0.005060813588352623,0.06029359989944405,0.00881321235378012
1113,4.2532303703380206e-05,0.0033134086307343544,0.06874046546838697,0.00652167951553738
1114,5.6934476244028596e-05,0.0050999074547748305,0.06341291464831178,0.007545493770723566
1115,6.137134186874976e-05,0.004452446680509164,0.07594246668710514,0.007833986333199037
1116,6.081024269191143e-05,0.005065286874784926,0.07050604206603239,0.0077980922469480145
1117,5.028473554860087e-05,0.003920384667425114,0.08442090207693553,0.00709117307281384
1118,4.590018693219527e-05,0.003776745234303993,0.07115676287307249,0.006774967670195532
1119,6.51852346318747e-05,0.004502537696883664,0.0684217513822339,0.008073737339787225
1120,5.958764976079713e-05,0.004751130528688098,0.05554207068692926,0.007719303709583956
1121,6.938179370818933e-05,0.0035792603861374067,0.09322497307622424,0.008329573440950559
1122,7.288635348114341e-05,0.00587622770800842,0.04997900503364017,0.008537350495390417
1123,6.0528812338158926e-05,0.005118971881767173,0.06287035438764343,0.007780026499836497
1124,4.966287097499095e-05,0.003601835569841442,0.09780820435974746,0.007047188870392984
1125,5.28737800518559e-05,0.0045739097734902225,0.0691509136177193,0.0072714359002782405
1126,5.624784320654852e-05,0.003970071234715258,0.06415197356122171,0.007499856212391537
1127,6.589604803556775e-05,0.004641885206408217,0.09263722961674503,0.008117638082322185
1128,7.536982101519283e-05,0.004036387545374541,0.08416376485901811,0.008681579407872276
1129,6.519576470594522e-05,0.0054164003137108195,0.056180587721135655,0.008074389432393294
1130,4.85922484134304e-05,0.004774318848166087,0.05220679450402321,0.006970814042379139
1131,7.085442987087996e-05,0.005554037548117293,0.0506560146260675,0.008417507343084366
1132,5.82287276445535e-05,0.00483709686842872,0.07351386179847941,0.0076307750356404205
1133,4.650987500718356e-05,0.0029931909832590594,0.07486490277847047,0.006819814880712145
1134,4.621767318551274e-05,0.004231269884262022,0.0490919736903509,0.006798358124246802
1135,5.568016609436031e-05,0.004853160497014241,0.06514597735504968,0.007461914371953087
1136,4.630862406175214e-05,0.00445505310562052,0.06656979467904578,0.006805044016150945
1137,5.0791194057111535e-05,0.004036184407386597,0.07826636009045895,0.007126794093918473
1138,6.805751414817856e-05,0.005102099413834448,0.06780866671056618,0.008249697821628259
1139,2.2298324394722922e-05,0.001871150769302676,0.07509440591977157,0.004722110163340405
1140,3.4223469079794736e-05,0.0037441314941699167,0.0815382236255342,0.005850082826746515
1141,4.703157925427239e-05,0.004515422617622164,0.07255151759431833,0.006857957367487206
1142,1.9350720656840788e-05,0.002159332916330307,0.06345016332958764,0.004398945402802889
1143,6.062010574438763e-05,0.004957794705918002,0.0748727872817112,0.007785891454701047
1144,5.4863579775633345e-05,0.004729545915371758,0.07664526066803701,0.007406995327096742
1145,6.705706738164266e-05,0.005648393032161945,0.05851794389987158,0.008188837975051287
1146,4.095667402276756e-05,0.003884897818475027,0.07900104346971926,0.006399740152753649
1147,6.587432856226843e-05,0.004686340522540401,0.0659364479222938,0.008116300176944431
1148,7.537974825371536e-05,0.005326256090822329,0.06610809623002734,0.008682151130550255
1149,6.051282253814893e-05,0.00465664155552402,0.08771711776191671,0.007778998813353064
1150,3.57329987031714e-05,0.0031744720389020177,0.07758058320349281,0.005977708482618658
1151,5.4813339589744575e-05,0.004613729370659697,0.0753815877453099,0.00740360314912572
1152,6.182902541225017e-05,0.004546149788881006,0.0817402610768938,0.007863143481601342
1153,7.109974785881823e-05,0.003632577574532954,0.08788416170833946,0.0084320666422187
1154,5.104663292141202e-05,0.004493488487957711,0.07284977941031912,0.007144692640093903
1155,6.84121198157336e-05,0.004398871416906917,0.07045418593541353,0.0082711619386718
1156,5.756389966553044e-05,0.004786141614910353,0.07335564069424638,0.007587087693280602
1157,7.243631476367076e-05,0.005709603820952139,0.06456851487666126,0.008510952635496808
1158,5.31460076723927e-05,0.005713268836519049,0.05323861735778346,0.007290130840553714
1159,6.638087412692456e-05,0.004351792259116596,0.07911520269291494,0.008147445865234314
1160,4.0628335784420374e-05,0.003932769320683932,0.058100928903591864,0.006374036067078696
1161,6.48133852008753e-05,0.0038979014019134887,0.0678388811113626,0.008050676071043636
1162,5.865830865506424e-05,0.004788676392521476,0.06030891306888883,0.007658871238966214
1163,5.182906471400045e-05,0.0044648948049047284,0.06828266692332985,0.007199240565087397
1164,5.141495836040928e-05,0.0032914680301042924,0.07709521815854248,0.007170422467359162
1165,5.1596717884377613e-05,0.004234961061341883,0.07041437808085016,0.0071830855406557256
1166,5.1036107183790324e-05,0.004006578224402841,0.07538519634727203,0.007143955989771352
1167,6.674562795744338e-05,0.005444467425429017,0.0748573603426963,0.008169799750143383
1168,4.471684658184062e-05,0.0030422315383418805,0.066398008113701,0.006687065618179653
1169,5.126945916278616e-05,0.004371233643821378,0.07581791399061943,0.00716026948953639
1170,7.490480037958414e-05,0.005946771371458262,0.05321514832396845,0.008654755939920176
1171,5.5544360502186875e-05,0.00474218646398921,0.0772757059477609,0.007452808900152089
1172,4.5727473268923405e-05,0.0034487219627207617,0.06605338228326518,0.006762209200322262
1173,6.53149924577327e-05,0.0037064942042344647,0.07307666602489737,0.008081769141576142
1174,5.7078142408880286e-05,0.00524964500326369,0.05077324291581853,0.007555007770272627
1175,6.15392972830692e-05,0.003973637094820148,0.09084170446036222,0.007844698673822271
1176,5.626979600183056e-05,0.003947532531861588,0.08361204758264179,0.007501319617362682
1177,3.864751826500206e-05,0.0038029066333286126,0.06537435508385947,0.006216712818282797
1178,6.525288387086215e-05,0.004754258630664693,0.07869945603450357,0.008077925715854408
1179,4.518546341711148e-05,0.0036085500619886684,0.06159402671221924,0.006722013345502304
1180,7.2695590306136e-05,0.005052233561301623,0.07508916339499416,0.008526170905285419
1181,4.19548858646436e-05,0.0031006021177691113,0.07557134988590142,0.006477259132120876
1182,6.365338807723996e-05,0.0050600196252748465,0.05595242232685127,0.007978307344120021
1183,6.296817010613382e-05,0.0029594896591418774,0.09133348317417234,0.007935248585024484
1184,6.645883500114675e-05,0.00514858250917099,0.06383055654109289,0.008152228836407014
1185,5.083937682553266e-05,0.004506738504926503,0.05010377138461536,0.007130173688314478
1186,6.256609206198191e-05,0.004967464211888114,0.08177921006070354,0.00790987307496026
1187,5.0525369200143366e-05,0.004872010472695749,0.053378528556589644,0.007108119948350835
1188,5.251297871897226e-05,0.005046389205115988,0.07406064602235318,0.00724658393444609
1189,4.28835185935985e-05,0.004120665346516844,0.07117448133105331,0.0065485508773772145
1190,5.887890593787725e-05,0.004649129682193467,0.07575843050931663,0.007673259147055883
1191,4.888788823621516e-05,0.0037726878928352435,0.0763853526256506,0.006991987431068129
1192,4.582970876538158e-05,0.003780349558115686,0.06665241039768599,0.006769764306486705
1193,5.1921917950691594e-05,0.004689055474665333,0.07459139395450709,0.007205686500999847
1194,7.310186065725269e-05,0.005071726848471583,0.07561855616514768,0.008549962611453464
1195,7.432530552372045e-05,0.005452151455464927,0.061101277046504254,0.008621212532104726
1196,6.378091192153842e-05,0.004468322643067499,0.0795379581891571,0.007986295256346226
1197,5.250769475211135e-05,0.004535404163917322,0.07024457262363959,0.0072462193419818004
1198,6.71487731419005e-05,0.005134486849706474,0.0758700141831623,0.00819443549867226
1199,7.507010652643628e-05,0.005587905468699091,0.05168621725162814,0.008664300694599418
1200,6.73903035823637e-05,0.005390100695706534,0.05386101108564301,0.00820915973668215
1201,5.431342129609667e-05,0.004112521967226536,0.07812756901332774,0.007369763991885777
1202,6.26229505940777e-05,0.004180318767764244,0.0675815675539222,0.007913466408223208
1203,4.908895328640006e-05,0.004271856920987743,0.06813041554326738,0.007006350925153517
1204,5.234164800848808e-05,0.0048008678915783904,0.05801884320264916,0.007234752795257588
1205,7.236519372542253e-05,0.005712175042562844,0.07351551568789905,0.008506773402731607
1206,5.8221826661349525e-05,0.004618437089414473,0.05957315509189787,0.0076303228412269
1207,7.538643075418537e-05,0.005479258156745909,0.044823202928969685,0.008682535963310763
1208,7.6547840150228e-05,0.005483890355899064,0.06406116892193037,0.00874916225419482
1209,5.637355047475918e-05,0.004533685927759541,0.07255722866839664,0.0075082321803976145
1210,7.161024796074841e-05,0.005649805146954287,0.0793508267408285,0.008462283850164067
1211,3.56316881573944e-05,0.003510602516562772,0.05465281184350168,0.005969228439035843
1212,6.334349375978141e-05,0.005147514630179127,0.06722394324164149,0.007958862592090714
1213,4.861239073066456e-05,0.004681743674081391,0.07084099235598451,0.0069722586534539804
1214,5.180298798044122e-05,0.004422430844350548,0.07034615975970882,0.0071974292619268335
1215,5.9955842743084604e-05,0.0035005979649780365,0.0830958693594086,0.0077431158291145115
1216,3.7844574100852976e-05,0.003754351162953088,0.07950150370778863,0.006151794380573263
1217,6.149646482833622e-05,0.005124041673787976,0.07613030439864432,0.007841968173126924
1218,6.838587170183687e-05,0.004315889618534313,0.07787042429796842,0.008269575061745095
1219,6.125115337951005e-05,0.004481924990106675,0.08607389479031324,0.007826311607616274
1220,5.991872051702818e-05,0.003901208871515549,0.06874089685797591,0.007740718346318217
1221,7.787301649706138e-05,0.005954931514416797,0.07088918648277964,0.008824568912817255
1222,6.624830749500496e-05,0.005360275458771489,0.06580167382673596,0.008139306327630413
1223,6.512965298962292e-05,0.004664118449188259,0.07709352385511892,0.008070294479733845
1224,8.07433774360904e-05,0.003576537337647446,0.0861260665123531,0.008985731880937166
1225,7.356844683728581e-05,0.003624414446924936,0.08585952929253882,0.00857720507142537
1226,5.935644680186047e-05,0.0038246094425533035,0.075169795033319,0.007704313519182625
1227,6.49855781754066e-05,0.004884889727428487,0.05862193159811557,0.008061363295088868
1228,4.940944348927914e-05,0.004866459165769165,0.061373567419348074,0.007029185122706524
1229,7.930055189438766e-05,0.004749551248137292,0.0843878591313576,0.008905085732006577
1230,4.4542952265762265e-05,0.004396468333211232,0.05371334818689055,0.006674050664009231
1231,4.101098624124638e-05,0.0033875793035671657,0.07760574613100057,0.006403982061283921
1232,5.808354705146206e-05,0.0051128214149597975,0.06140015556666645,0.007621256264649666
1233,5.475913871437466e-05,0.004292087335338686,0.10161062584391486,0.0073999418047964415
1234,4.903177973904369e-05,0.00414441588213594,0.07159854907057728,0.007002269613421296
1235,6.580057725489934e-05,0.005177813269134369,0.07719069205837492,0.00811175549772666
1236,3.933362822580908e-05,0.004140766963918703,0.06384894167039867,0.006271652750735536
1237,6.705928335155397e-05,0.004127164928838138,0.08398324819774894,0.008188973278229298
1238,6.094500292196521e-05,0.005171226205600612,0.061745494881599416,0.007806728054823292
1239,6.120499490421242e-05,0.004171980813390314,0.07806551209005885,0.007823362122784028
1240,4.841381167120232e-05,0.0035639766026199196,0.08634221546017479,0.006958003425638849
1241,3.94717090423538e-05,0.0037832830942746225,0.07437377943075862,0.0062826514340964
1242,7.396023685474342e-05,0.005323778742673504,0.07590896884364384,0.008600013770613571
1243,6.389623422993642e-05,0.005155562275092651,0.06301778406357172,0.007993512008493879
1244,7.784114186541312e-05,0.0046245356193342765,0.07099055617465044,0.008822762711612047
1245,4.65705381143536e-05,0.0036522489008160184,0.06030807019352413,0.006824260994009064
1246,6.428992714201027e-05,0.004678761520360081,0.07737825079082938,0.008018099970816667
1247,4.8932212776771854e-05,0.0048329079493552,0.0681720058959564,0.006995156379722439
1248,7.508574299308068e-05,0.004768402721306145,0.07108597516989401,0.00866520299779986
1249,5.7503951563684905e-05,0.003937391517259235,0.07021802279367795,0.0075831359979684106
1250,6.198253983316878e-05,0.004351056294154978,0.08005586059936709,0.007872899074239968
1251,5.699072062438279e-05,0.005155588947214979,0.04995757225696451,0.007549219868594534
1252,5.673377528986472e-05,0.004402955793405376,0.07489409822660065,0.007532182637845669
1253,7.383518253247522e-05,0.005184941348993433,0.06729229340456633,0.008592740106187012
1254,4.34100792265364e-05,0.004011427460064531,0.07187270664407741,0.0065886325763800215
1255,5.4142864543180214e-05,0.0030501789888737383,0.07053357080099731,0.007358183508392518
1256,6.492997610987754e-05,0.0044248742652166,0.07004791621251605,0.00805791388076819
1257,4.745611844570161e-05,0.0045923972298769974,0.05559798858132847,0.006888840137911532
1258,6.757700758512325e-05,0.004292337418399423,0.0821204208918681,0.008220523559063794
1259,6.392993975093148e-05,0.00493156033120416,0.07602118752929776,0.007995620035427585
1260,4.893223696698872e-05,0.0038951750681382575,0.062392000662794045,0.006995158108791268
1261,5.9352870885757976e-05,0.004598546294251191,0.07561698874438783,0.00770408144334922
1262,6.318051395502893e-05,0.004665430285168096,0.06898522895095524,0.00794861710960015
1263,5.851157835092193e-05,0.0050911842224379425,0.05241048026676243,0.007649286133419326
1264,4.309350566704731e-05,0.003767961587963181,0.06320628914055115,0.006564564392787004
1265,6.219549176612191e-05,0.004935734193512201,0.06738140560721195,0.007886411843552285
1266,4.3594146604179286e-05,0.004027944439026019,0.08192102502385135,0.006602586357192077
1267,4.821937851058696e-05,0.004569268608372498,0.06326731704666555,0.006944017461857844
1268,7.542542323149972e-05,0.0049707120386494165,0.07323432698526083,0.008684781127437756
1269,6.344583641737275e-05,0.00537852606296804,0.07125045373206573,0.007965289474800779
1270,6.739920386689813e-05,0.004571621474797454,0.07217063638117382,0.008209701813519012
1271,5.544517830429809e-05,0.0034940460616756535,0.07105250988104284,0.007446151912518144
1272,6.0259119889454796e-05,0.004518525573795711,0.06527816377383422,0.007762674789623377
1273,3.005231077713623e-05,0.0037481139839216798,0.05013139968058411,0.005481998793974333
1274,6.52252059263575e-05,0.003978711340758543,0.07446966640700087,0.00807621235025165
1275,5.7189092261695406e-05,0.004898947503150143,0.061534098021970074,0.007562347007490156
1276,5.036918540173944e-05,0.004284670959636633,0.06272966628389742,0.007097125150491496
1277,5.883578466061694e-05,0.004598345331718341,0.06654152769601862,0.0076704487913430595
1278,5.0455081619555804e-05,0.004510020477007399,0.054421585485388,0.007103174052461021
1279,6.666157849674464e-05,0.005082282422297225,0.07855385893458866,0.008164654217830912
1280,7.797989920359035e-05,0.00601449293383788,0.06503215065722312,0.00883062280949594
1281,6.720999287217522e-05,0.003686760086656074,0.08685079164054166,0.008198170092903348
1282,3.2052124288862e-05,0.0033659537898961416,0.05828905958063535,0.0056614595546432755
1283,5.28287327014011e-05,0.003439425927761846,0.08229556233095131,0.007268337684876811
1284,5.512686074211452e-05,0.004954515106357218,0.06704147976934305,0.007424746510293425
1285,4.3325051436177924e-05,0.004384222391478107,0.058925295823267554,0.006582176800738297
1286,7.052537767642435e-05,0.003502960415905411,0.10652072167331106,0.008397938894539792
1287,4.1614798077906466e-05,0.004166246002653287,0.051775265608519305,0.006450953268929035
1288,5.445419926086514e-05,0.003776662217081314,0.07140810875871173,0.007379308860649801
1289,2.14992065065395e-05,0.0028521759697080614,0.03486710587839559,0.004636723682357977
1290,5.967836610700574e-05,0.004588759230189216,0.06424632285413034,0.007725177415891863
1291,5.898426444193181e-05,0.005050181586876511,0.06600885703078285,0.007680121381979014
1292,7.224046548659609e-05,0.004283457475050537,0.08008303961567176,0.008499439127765714
1293,6.150556097566405e-05,0.004133092584679853,0.07480032049022256,0.007842548117523
1294,5.304901377628909e-05,0.004227208659659029,0.0915494353220696,0.007283475391342291
1295,4.418104984405335e-05,0.0036617670609161474,0.07699336296820292,0.006646882716285355
1296,4.311975464480319e-05,0.0033029509777144253,0.06967809186856799,0.0065665633816177306
1297,5.859022248924101e-05,0.0033404871349314237,0.10511924418727903,0.007654425026691475
1298,2.698465408847575e-05,0.0022977318545400554,0.0893655429770348,0.005194675551800662
1299,5.8078383590464936e-05,0.0034368168210008386,0.08704686593499744,0.007620917503192429
1300,6.4512069351404e-05,0.005168060947362231,0.08523461027531187,0.00803194057195415
1301,3.7228742863159716e-05,0.0035781181873408285,0.07801714036904794,0.00610153610684715
1302,8.181414648968251e-05,0.0036688372035749324,0.08887700373590235,0.009045117273406787
1303,4.890000992412802e-05,0.004344987335217837,0.07329447317318039,0.0069928542044095
1304,9.130902223677926e-05,0.006084415170924,0.07323654582571049,0.00955557545293734
1305,5.822050865477776e-05,0.004569812396507102,0.0771653836390771,0.007630236474368078
1306,6.21487635012076e-05,0.005264692192515212,0.07363082448318625,0.007883448706068124
1307,5.747206256055035e-05,0.004205735939198886,0.08052254055003827,0.007581033080032687
1308,6.691241818938121e-05,0.005089542631926391,0.07051895040554734,0.008180001111820247
1309,5.095711557817693e-05,0.003890825099614896,0.08093538120480881,0.007138425287006698
1310,4.14538594291798e-05,0.004066321890812504,0.07339154457191233,0.006438467164564826
1311,4.019596060805378e-05,0.002985787518039602,0.05822375449018402,0.006340028439057164
1312,4.615429268597655e-05,0.002987041933706953,0.07517749546733299,0.006793695068663026
1313,5.125392420358411e-05,0.004187649984076561,0.05987107765163113,0.007159184604658815
1314,6.160715176012673e-05,0.004710831012777583,0.07645582001216189,0.007849022344223923
1315,4.377142622018369e-05,0.003820975666828891,0.061879780523728334,0.006615997749408865
1316,5.12121372311809e-05,0.00426506343315673,0.07779550990052439,0.007156265592554573
1317,6.500131451086495e-05,0.004199120318691995,0.07248766574853072,0.008062339270389495
1318,4.952035540297328e-05,0.004314242540187161,0.058532359759244645,0.0070370700865468715
1319,4.8553268504750315e-05,0.0038758942803167563,0.04623675409218242,0.0069680175448078325
1320,5.694367216404924e-05,0.004355109120815655,0.06640804121287491,0.0075461031111461055
1321,5.087897086947803e-05,0.0034041186836411877,0.0861243315643565,0.007132949661218551
1322,4.045052993195864e-05,0.003963839249424151,0.06138582421020766,0.0063600731074381625
1323,4.254952250067271e-05,0.003567993595414321,0.06522682353748555,0.0065229995018145125
1324,4.966656447416308e-05,0.0040027561322153885,0.08136086359608274,0.007047450920308865
1325,5.102292411017355e-05,0.003922054350133372,0.05847959629416888,0.007143033256969565
1326,5.834880745793291e-05,0.0031869740516701998,0.06552947846980306,0.007638639110334532
1327,5.610198253238406e-05,0.00437963126318512,0.08521204451109377,0.007490125668664273
1328,4.741110256504281e-05,0.004701097865007327,0.05121149443634021,0.006885572057936981
1329,3.68523883938233e-05,0.0030992312199238097,0.07054369504724534,0.006070616805055567
1330,8.523363611733441e-05,0.005772623375559882,0.07384784539262271,0.009232206459852028
1331,2.7299621267296384e-05,0.0022759841090332876,0.07138024609361171,0.005224903948140688
1332,7.107269951375267e-05,0.005482631254893091,0.06011433200263294,0.008430462591919376
1333,5.548541807610554e-05,0.004709827963300427,0.06130348679590725,0.00744885347393176
1334,7.528205585766348e-05,0.005311901993730431,0.07724897962902766,0.008676523258636602
1335,6.593274536177786e-05,0.005648588065813966,0.06121690727715112,0.008119898112770755
1336,5.6592734107074245e-05,0.004489409889199812,0.05597064169469501,0.007522814241164898
1337,3.983701774387837e-05,0.0034436543967671642,0.049245608274299135,0.006311657289799411
1338,9.045086360334849e-05,0.006290799289604344,0.06595951225663854,0.009510565892908145
1339,6.060897986524928e-05,0.0035202784651371137,0.06718683806445,0.007785176932173637
1340,7.380616867968131e-05,0.003371443363209944,0.08645386434029723,0.008591051663194727
1341,6.183181311386503e-05,0.00430036542340325,0.07719453223416384,0.007863320743417782
1342,7.568962473944196e-05,0.0053975922861256185,0.08454106661117855,0.008699978433274514
1343,7.22293414640212e-05,0.005184557855324873,0.07894228388318325,0.008498784705122303
1344,2.669845787953178e-05,0.0031591813461839696,0.056541215911838805,0.005167055049013085
1345,7.690530581431639e-05,0.0054355900530854,0.06628375100392025,0.00876956702547599
1346,4.4240491906345135e-05,0.0029693940364633174,0.066373660013062,0.0066513526373471535
1347,5.656330057764515e-05,0.005135222605940124,0.07128983015687984,0.007520857702260061
1348,5.299921054549591e-05,0.00463824794327531,0.06752565003577704,0.007280055669120625
1349,6.392172006622351e-05,0.004825837752669999,0.0707873981131264,0.007995106007191104
1350,7.224331841056439e-05,0.004863256099525165,0.08723753027370695,0.008499606956240016
1351,6.161735552199443e-05,0.005288512510323134,0.0637946600075856,0.007849672319402501
1352,4.7401626395964086e-05,0.004615976249772055,0.06662017399766029,0.006884883905772383
1353,5.949730686592031e-05,0.003998471779988378,0.09219588242474619,0.007713449738341442
1354,5.381914400923711e-05,0.004828594556837223,0.05672539986240466,0.007336153216041532
1355,6.631161868399521e-05,0.005648516076868953,0.061701218381170264,0.008143194623978639
1356,4.508715081344808e-05,0.00452240568690702,0.07096776202096144,0.006714696628549009
1357,4.247426415061197e-05,0.003882961972243627,0.057975896806595095,0.006517228256752358
