sample_index,mse,mae,max_absolute_error,relative_error
0,7.245238089298671e-05,0.0056575974193712394,0.059042633049156024,0.00851189643340345
1,5.6810162396038884e-05,0.005589472085494049,0.05368141037739527,0.007537251647387031
2,3.956828480777164e-05,0.004370275858507417,0.04201981063751603,0.006290332646829681
3,4.435724490469739e-05,0.0038863613447841098,0.07613417291722158,0.006660123490198741
4,4.397196716712151e-05,0.0036669670546234314,0.0727873207831955,0.006631136189758221
5,5.975021039395753e-05,0.004575246720094175,0.0648768898862846,0.0077298260261119064
6,7.042051672726583e-05,0.005017158313808481,0.059789710759099,0.008391693317040712
7,5.211790481177242e-05,0.0044003999379662595,0.05422327150570916,0.007219273149824153
8,5.1833801969868724e-05,0.0047245468095903145,0.052838854970660876,0.007199569568374799
9,5.577590657265096e-05,0.004270354961282614,0.05574167921680928,0.007468326892460625
10,6.469695939112798e-05,0.004115052664339919,0.061293329669009466,0.00804344201142319
11,4.533664858483361e-05,0.00387512813733265,0.054894239909168974,0.006733249481850001
12,6.908352029121715e-05,0.005653842651962026,0.04677360496036545,0.008311649673272851
13,5.8434039323570675e-05,0.004327876038936555,0.04926395863173372,0.007644216069916532
14,7.27985212304653e-05,0.004682166634832578,0.06356187608351693,0.008532204945409152
15,4.049735483153612e-05,0.00401168914653029,0.04333680904967352,0.00636375320322336
16,6.385976465236789e-05,0.005200570610819125,0.06327130474774378,0.007991230484247549
17,5.7154496605891455e-05,0.0048386359833226845,0.05918951070816769,0.007560059299098839
18,6.39234983925809e-05,0.005286737068695086,0.06313551621328274,0.007995217219849653
19,6.178484985705764e-05,0.004147716670304876,0.05941378969637445,0.007860333953278141
20,5.124545123997703e-05,0.00459506535720476,0.05020702580819525,0.00715859282540757
21,8.268984904028297e-05,0.005560139090199895,0.05685175348662952,0.009093395902537327
22,7.483246398930197e-05,0.0045350334409671195,0.06682874477521317,0.00865057593396539
23,7.69079460242733e-05,0.0054797328270004015,0.06701282511742745,0.008769717556698886
24,7.179156764479013e-05,0.004597145743910775,0.07122334244009387,0.008472990478266204
25,4.752717816675207e-05,0.004081880138270006,0.0609490773019119,0.006893995805536263
26,6.63226406443507e-05,0.005187700858008436,0.06512611323175665,0.008143871354850252
27,4.7991190138125244e-05,0.004529074789801651,0.04365576515674041,0.00692756740408384
28,6.785812658267089e-05,0.005120654221103885,0.06031408271560079,0.008237604420137585
29,5.2849236182427004e-05,0.004618321862047651,0.05278134691127345,0.00726974801368153
30,6.170611981655828e-05,0.004642632390695441,0.06213538676405306,0.00785532429735129
31,5.821397808815753e-05,0.00455139833883359,0.04203383324970822,0.007629808522378336
32,7.675547847175457e-05,0.004323874550737465,0.06541101488528511,0.008761020401286243
33,6.652840181457278e-05,0.004699771692023097,0.0508047756144232,0.008156494456233766
34,4.8902472226671795e-05,0.005061573376933571,0.0396084878377323,0.006993030260671786
35,8.468619091862041e-05,0.0055605925556026494,0.06239406355845745,0.00920251003360604
36,4.590490442000554e-05,0.0037510331029372915,0.052814632828495744,0.006775315816993707
37,4.853997273705605e-05,0.0046265181904738845,0.051865707158039065,0.006967063422781196
38,5.872755108392356e-05,0.005358342170089649,0.061723148188528976,0.007663390312643806
39,5.000104745556707e-05,0.004103156684721289,0.06261119093773226,0.007071141877770987
40,6.396676888852645e-05,0.005166206198400292,0.05372842226657082,0.007997922785856714
41,6.941767776628544e-05,0.0044406090757231655,0.05580782161164022,0.008331727177859623
42,5.980969664804159e-05,0.004867114765057369,0.06086220340223303,0.0077336729080069696
43,8.316612103920043e-05,0.005927725239218588,0.057826515099938636,0.009119546098309929
44,5.919563506687724e-05,0.004929914029704027,0.056462361920947446,0.007693869966855227
45,8.242529021706342e-05,0.005410075701773026,0.05517043508978681,0.009078837492601268
46,7.190780392114762e-05,0.005389036008278985,0.05117254665191728,0.008479846927931385
47,4.345802401919719e-05,0.004454625627151953,0.05490424919133696,0.006592270020197641
48,8.538958016736741e-05,0.0058674970189257205,0.04656809674682923,0.00924064825471498
49,6.229217150767561e-05,0.004772351833910931,0.06839059904795466,0.00789253897726676
50,6.805268741621562e-05,0.004674700598485551,0.05121595509999799,0.008249405276516294
51,4.037684644523336e-05,0.003643362709208668,0.051522045766935864,0.006354277806740366
52,7.539024039713503e-05,0.006650952905723943,0.042270506454544554,0.008682755345921844
53,5.674900780517162e-05,0.005425463521901936,0.044039128060072485,0.007533193732088078
54,3.9319702475566866e-05,0.003909707351446853,0.05869818654352521,0.006270542438702305
55,5.710969762689684e-05,0.004476794459946549,0.04535569056677924,0.007557095846083746
56,5.6586483081188025e-05,0.004467469921360257,0.06823878739981337,0.0075223987584538245
57,4.273866548066575e-05,0.003866979964748705,0.058703674966655406,0.0065374815854934085
58,6.914333441159578e-05,0.004894830143726696,0.06292701483143581,0.008315247104662343
59,6.629583667260274e-05,0.004576284999152275,0.05768426760565282,0.00814222553560156
60,7.228877945401206e-05,0.0049711367061937815,0.04786814621738267,0.00850228083834046
61,5.21604806011223e-05,0.0049333451387057765,0.05467639335909791,0.0072222213065733405
62,7.29464178391977e-05,0.005011707789560184,0.06795789855595968,0.00854086751092636
63,4.82357017897628e-05,0.003763311121864109,0.053974987986554535,0.00694519271077215
64,5.3223441718154324e-05,0.004570917794606159,0.0516086099167552,0.007295439789221334
65,4.73669610072238e-05,0.004436366458612382,0.046255159712096316,0.0068823659454597015
66,5.300330278830557e-05,0.004830243601998517,0.05642891932218874,0.007280336722178823
67,6.550921903858489e-05,0.004248429812439977,0.061295494648194504,0.008093776562185575
68,7.255052595919735e-05,0.005272020840949442,0.05087471551503886,0.008517659652697839
69,6.354042778881161e-05,0.00392928656405639,0.07201117463862405,0.007971224986713838
70,4.282535558426857e-05,0.004482137659978167,0.06395700102979163,0.006544108463669294
71,8.44591428845311e-05,0.0050909687250571345,0.05833564828882354,0.009190165552618217
72,7.367957154324791e-06,0.0016053133268012097,0.028754107307338257,0.003838738635105209
73,7.638142778345249e-05,0.004694511649198923,0.05623887350822837,0.008739646891233757
74,7.005612809767629e-05,0.004314471690078937,0.0637012209558172,0.008369953888623034
75,7.509767781723188e-05,0.005206623868684001,0.048104372023948905,0.008665891634288474
76,4.802510307648928e-05,0.004684422728088617,0.04602299358314532,0.006930014651967824
77,6.0632295408989694e-05,0.0046028937977198245,0.05732882481465126,0.007786674220037008
78,5.869530446540665e-05,0.004576488226427546,0.051373394626491375,0.0076612860842945945
79,7.234985518475164e-05,0.005043267360337496,0.05946241275963171,0.008505871806273064
80,7.346950334775102e-05,0.0059717169902242274,0.049640669452481134,0.008571435314330394
81,6.359436606555951e-05,0.005434928143317074,0.04749594539785343,0.007974607580662455
82,6.222206287695184e-05,0.004642316972837297,0.06312140330122418,0.007888096277109657
83,4.7126524747327834e-05,0.004570160260927791,0.046780399239649384,0.006864876164019822
84,4.3643560934610225e-05,0.003920445061723765,0.05959556580293368,0.006606327340861187
85,6.010142577174642e-05,0.004853985706329945,0.060145949287819855,0.007752510933352226
86,7.497118610915467e-05,0.005203292208395265,0.0764118489302339,0.008658590307270224
87,6.204506773513519e-05,0.004496391892184781,0.05184274416917978,0.007876869158182987
88,6.320827017731644e-05,0.0052765091456598535,0.05962507659863536,0.00795036289595109
89,4.847402498237633e-05,0.0040896159935232415,0.059196704338285056,0.006962328991248264
90,9.00147549362957e-05,0.006504432541900221,0.05498207530596125,0.009487610602058617
91,5.8601851923129864e-05,0.005178333842837695,0.05075775447697706,0.007655184643307395
92,7.392559827801186e-05,0.005604930217843802,0.05617233839945579,0.008597999667248836
93,5.0881394928500834e-05,0.0043689364505766996,0.061054874483991384,0.007133119579013129
94,6.031832206355709e-05,0.004717605476466676,0.05555053522125941,0.007766487112173482
95,6.505673403411697e-05,0.005406341147944892,0.04880299339547256,0.008065775476302103
96,5.7599028479363834e-05,0.004969347151077686,0.05323352973629536,0.007589402379592436
97,6.158667610380853e-05,0.004451985133712363,0.058333437153652135,0.00784771789145149
98,5.8855427082587026e-05,0.004069751863536804,0.06628376319865407,0.007671729080369466
99,5.584439898508249e-05,0.003762635871285597,0.05997577977494384,0.0074729110114521045
100,4.840577442402956e-05,0.003926249280811102,0.04682305585271873,0.006957425847540831
101,5.205601982961458e-05,0.004571702304231569,0.05653716757889504,0.007214985781664018
102,5.397845401437634e-05,0.0037092107100150525,0.06110406814926188,0.007347003063452193
103,5.0984522532200226e-05,0.004047166956532827,0.06295132036811824,0.007140344706819134
104,5.580439469265579e-05,0.005009691374690256,0.0535747553544339,0.007470233911508733
105,5.427479430176756e-05,0.004656186418264575,0.05596005856135572,0.007367142885933947
106,5.7959085534788445e-05,0.0049607828286581815,0.052901338239437656,0.007613086465736995
107,5.990390032191448e-05,0.0052539710509246365,0.046693126707144095,0.007739760999017592
108,3.862529058354365e-05,0.0038155420447026104,0.05223864518330634,0.006214924825252784
109,5.5032250201511755e-05,0.004453367951088911,0.049930116516291534,0.0074183724765956305
110,4.7338721486332544e-05,0.004057870157106845,0.053983212988338636,0.006880314054338824
111,5.374385497412012e-05,0.00482617159146798,0.05811340778513863,0.0073310200500421255
112,5.532595760380827e-05,0.005331622475000629,0.04284235864789343,0.007438142080103591
113,6.65035358564578e-05,0.004722809399916461,0.06913478928228134,0.00815497000953759
114,5.951538165913794e-05,0.004820584461185738,0.05851088701841611,0.007714621290713993
115,4.82788185972057e-05,0.004355655464759708,0.06322160198630278,0.006948296093086792
116,5.53638322450139e-05,0.004618240484438671,0.05551768086201481,0.0074406876190990295
117,5.279099721216858e-05,0.004943900991300978,0.049691082303843004,0.007265741339475843
118,6.281096352105083e-05,0.005803546853860395,0.035141669886822546,0.007925336808051145
119,4.9614452119400955e-05,0.004997101645229694,0.04796957975381333,0.007043752701465363
120,6.347722396401567e-05,0.005363013996176068,0.04067020699570323,0.00796725950148576
121,5.087811670128942e-05,0.004797888225422569,0.051473666259034045,0.0071328897861448175
122,6.905731894099152e-05,0.00420077694766884,0.06137599097966007,0.008310073341492905
123,6.270745125188028e-05,0.004029989011033468,0.06555534731798274,0.00791880365029213
124,4.3338055558094825e-05,0.004166411433395934,0.04219039129518931,0.006583164554991364
125,5.119241063783783e-05,0.004224863368665137,0.05583677961813782,0.007154887185542306
126,6.601208688901514e-05,0.005461224591587549,0.062095395332993686,0.008124782267175829
127,6.438849170264925e-05,0.004750120520005341,0.05912118791193133,0.008024243995707562
128,6.049221052391635e-05,0.005153530468046473,0.0568391362020515,0.007777673850446302
129,5.1633583047498294e-05,0.004761827988439409,0.06302427416583711,0.007185651191610809
130,5.1015400423780056e-05,0.00460701302780829,0.06046264998125883,0.007142506592491152
131,6.0968754934828934e-05,0.004659582252370501,0.06460658625561821,0.007808249159371658
132,6.293904401349889e-05,0.005372874763946847,0.059404825330781286,0.007933413137704225
133,8.286705368097295e-05,0.003925303895877072,0.0817868440450793,0.009103134277872217
134,5.812790806269861e-05,0.0047841530781771386,0.05290213742004157,0.007624166056868004
135,7.242998967476824e-05,0.005864173607595046,0.06073368620209496,0.00851058104213615
136,6.305929120333638e-05,0.003769104658415328,0.05932964968809884,0.007940988049565096
137,7.03751558729287e-05,0.0052356544722247335,0.06314979268938226,0.008388990158113676
138,7.354758106254661e-05,0.005322847998556136,0.06529551966961389,0.008575988634702478
139,4.8652757527455946e-05,0.004795862433283037,0.062340872237204525,0.006975152867676519
140,6.387384305593832e-05,0.004971640166447992,0.06501040010604392,0.007992111301523377
141,4.387292975042502e-05,0.004090319772223885,0.07258616348217894,0.006623664374832469
142,6.441607484788507e-05,0.0045021594947449416,0.060782942632488624,0.008025962549618843
143,7.943725805583137e-05,0.004855078713340219,0.06105146961918484,0.008912758162086002
144,8.155014490352903e-05,0.00484958530293131,0.06391058628554536,0.009030511884911533
145,4.340555473813071e-05,0.0038165798723396,0.057838583355940054,0.0065882892117855845
146,6.056952151459554e-05,0.0045963228317709515,0.06729336234437044,0.007782642322154786
147,6.68698648811465e-05,0.0054367186913563135,0.055669942394705685,0.008177399640542583
148,6.702151066285184e-05,0.004988787586867545,0.06479231265397889,0.008186666639289247
149,4.761233742669629e-05,0.0034401240592004303,0.06786745806622108,0.006900169376667211
150,3.8648592969411596e-05,0.0036560535274728343,0.044584154184452274,0.0062167992543921795
151,6.512049755484619e-05,0.004825604719653195,0.05208448438082558,0.008069727229271486
152,5.261528078247637e-05,0.0045362378265631454,0.058024674945927335,0.007253639140629757
153,8.507212465936947e-06,0.0016863239010745476,0.034022023032557455,0.004124854534631945
154,4.6961607992056196e-05,0.004508185037690843,0.0581429760731047,0.00685285400341024
155,6.617443917703993e-05,0.005060091199604881,0.054805867809048614,0.008134767309335869
156,4.681304436168441e-05,0.004461238776251408,0.053889743726641015,0.006842005872672445
157,4.537393477456366e-05,0.003962035854851046,0.05563980738939245,0.006736017723741769
158,5.546551464165396e-05,0.004505485618406205,0.06118141210923089,0.007447517347522819
159,5.87132779556528e-05,0.004968553467992243,0.046166535899008654,0.00766245900189047
160,6.160099333616006e-05,0.0041055257048859374,0.06367991588670563,0.007848630029257323
161,5.996339442231439e-05,0.004552800341312515,0.055365643231850115,0.007743603452031478
162,5.932435677953028e-05,0.00526277146102873,0.057853979493400765,0.007702230636609748
163,3.783178951213103e-05,0.003660812221996714,0.06824107395210027,0.0061507551985208134
164,4.904684501890788e-05,0.004321359582592272,0.05715373587622352,0.007003345273432384
165,6.42093146305315e-05,0.0046791796548786985,0.05586701983838083,0.008013071485424971
166,4.8191683688256264e-05,0.004868061149154591,0.05912861106146927,0.006942023025621255
167,5.5662501597872745e-05,0.004999406591621821,0.07973228317859116,0.00746073063431943
168,4.86990988543109e-05,0.004091195793269954,0.04494544224345676,0.006978473963146271
169,6.259271234880806e-05,0.005254160653885075,0.06470688991369844,0.007911555621292655
170,2.2569449808276855e-05,0.0032947091877418623,0.03790272751042156,0.0047507315024400846
171,7.501099811670057e-05,0.005049332509574668,0.0640066956468921,0.008660888991131346
172,7.253279520091178e-05,0.005423308075753233,0.051256120910410985,0.00851661876573743
173,8.614828437478972e-05,0.006202029092180039,0.06085047585026082,0.009281610009841451
174,6.490438033572564e-05,0.004945004408870913,0.07196576885853023,0.008056325485959788
175,4.6328415798064986e-05,0.003981872197113979,0.06115288977507882,0.006806498056861882
176,4.9480794901951595e-05,0.004033340034785393,0.058151475943319486,0.007034258660438288
177,5.555195444335042e-05,0.00514848216690874,0.059796426531096625,0.007453318351133932
178,7.03118378600075e-05,0.003985282115083552,0.06672291818908083,0.00838521543313032
179,4.545543013090788e-05,0.004288549669563674,0.07524295453803997,0.006742064233668164
180,3.840477626647967e-05,0.004024080569272892,0.050456955655298064,0.006197158725293329
181,7.634747420414251e-05,0.005299012819288717,0.05986968574732818,0.008737704172386567
182,7.168180201315133e-05,0.005618827321245559,0.06372792952849643,0.008466510616136434
183,4.593674944581735e-05,0.0048058318828128775,0.052177117762316705,0.006777665486420604
184,3.569677317752051e-05,0.003408241202667162,0.059957894255934646,0.006898963514182914
185,4.67615417076871e-05,0.003887213793271885,0.06889778954725889,0.006838241126758158
186,7.829205399240076e-05,0.005384019665571421,0.07026215663760871,0.008848279719380488
187,7.692774806050116e-05,0.005064979988193219,0.06867952256612364,0.008770846484832619
188,7.233773536040084e-05,0.004955738889874469,0.05932308349042803,0.008505159337743186
189,7.192618195906004e-05,0.00587102348016145,0.04757710348633326,0.008480930488988792
190,6.341747477359225e-05,0.004757459795357867,0.06140497919770094,0.007963508948547231
191,4.807058383660425e-05,0.0048323529635077855,0.04508852924423756,0.006933295308625174
192,7.656306790242863e-05,0.005440839768102252,0.0644582039213919,0.00875003245150714
193,6.035203837318729e-05,0.004579483187477763,0.05787815742702218,0.007768657436982704
194,5.6949943696319595e-05,0.004479085539128659,0.06705354798578078,0.007546518647450564
195,5.825632500059069e-05,0.004637510010059422,0.057379761576780264,0.007632583114554993
196,5.294500031753099e-05,0.004339411770973811,0.06802975895516594,0.0072763315150926626
197,6.0889667961073876e-05,0.0046602578938903134,0.06149349482914718,0.007803183194124904
198,5.233968304831436e-05,0.004224015273848056,0.06031745296381219,0.007234616993892218
200,6.919421342322407e-05,0.005367231961612893,0.053748930056554886,0.008318305922675824
201,4.3953580443217116e-05,0.0043097291504253805,0.05232807487068647,0.006629749651624642
202,6.892433572264709e-05,0.004791650165888845,0.05917079854546342,0.00830206815935925
203,9.007514725178604e-05,0.005074735577625328,0.06137083803555843,0.00949079276202917
204,4.504711035597633e-05,0.00416539660805088,0.06519553904537378,0.006711714412575675
205,6.58161635278845e-05,0.004819002657833724,0.0603897693190909,0.008112716162166897
206,3.092293451834265e-05,0.0038969437281880467,0.046191021801525345,0.005560839371744374
207,5.4964223551505e-05,0.004699583235405273,0.054179390608226796,0.007413786047054802
208,7.678753298096589e-05,0.005257234316845411,0.04671955906525427,0.008762849592510703
209,4.822919734336675e-05,0.0036625389658945327,0.05880456585705085,0.006944724425300585
210,8.857790259716615e-05,0.005546691208655977,0.057040918701165566,0.009411583426669775
211,3.763675684417855e-05,0.00437856531117177,0.03572181735456592,0.006134880344731933
212,4.659922494441521e-05,0.0045492213600173215,0.054517960455242154,0.0068263624972905584
213,7.001763256598762e-05,0.004917204691589417,0.05167726030585196,0.008367653946357195
214,6.938957570457755e-06,0.0017397660975160861,0.025189792359573377,0.003725307388782223
215,6.254474453353617e-05,0.005189297063891454,0.0460484921910419,0.007908523536889516
216,7.253309739102948e-05,0.0053625822397514455,0.07515510410909965,0.008516636506921534
217,7.555764515349684e-05,0.005125434989075789,0.069676813339768,0.008692390071407052
218,5.6044358720819895e-05,0.004212230054895344,0.056613021250604634,0.007486278028554605
219,9.349111692315755e-05,0.0060712280306558794,0.06670125866592169,0.009669080459028001
220,4.79150048998619e-05,0.005033598278271683,0.055034897201489574,0.006922066519462335
221,5.96871418480579e-05,0.00491084757316518,0.06296681856404751,0.007725745391097059
222,7.718207286308001e-05,0.004565725448440494,0.06904081275613727,0.008785332825970752
223,3.596795817791458e-05,0.003750620420934685,0.06160653436363539,0.005997329253752397
224,5.164950122565415e-05,0.00456079282883185,0.05781838578920029,0.007186758742691561
225,4.4750416476126566e-05,0.004577933303693186,0.04766919787847712,0.0066895752089446096
226,5.404635859372129e-05,0.00460440443424772,0.055504609414089856,0.007351622854426144
227,8.563903851830055e-05,0.005469418984646762,0.0444643432032481,0.009254136292399188
228,7.327616760794988e-05,0.00597638406845034,0.05946834251325872,0.008560149975786014
229,4.7301191843957854e-05,0.0044693865437100775,0.049143436513843675,0.006877586193131819
230,6.76986073952575e-05,0.004691026198717506,0.0713529100312218,0.008227916345907823
231,4.680281516663358e-05,0.004509951129799464,0.05567721887445337,0.006841258302873321
232,4.0803069401301135e-05,0.004366518084197131,0.054878552957820625,0.006387728031256568
233,4.9895432703291765e-05,0.005005503615348849,0.05161171206687959,0.007063669917492702
234,4.591874069155614e-05,0.00463669623592001,0.052323532814455564,0.006776336819518033
235,5.731629733912958e-05,0.005102229511503634,0.04893610059956899,0.007570752759080758
236,6.425805742194982e-05,0.005021244591086315,0.06415700154184378,0.008016112363356026
237,4.9425243988507256e-05,0.00504553719933628,0.04985585085909228,0.007030308953986793
238,7.07483086661692e-05,0.004943930949791399,0.0664552951288428,0.008411201380669017
239,5.7483115909278735e-05,0.00453301153980975,0.06410796286335252,0.0075817620583396375
240,8.922134428637089e-05,0.005300478156492238,0.05034093346109891,0.009445705070897018
241,5.432390798484619e-05,0.004034219466134632,0.0694002061284299,0.007370475424614479
242,7.339839987330061e-05,0.005179770825216304,0.04879343159628435,0.008567286610899621
243,6.748123924747293e-05,0.005322482253259204,0.050975739423736344,0.008214696540193833
244,5.386742751852906e-05,0.005059487176055715,0.04871950130278169,0.0073394432703392885
245,6.930221673083085e-05,0.004978406628856281,0.05239936454864358,0.008324795296632239
246,5.608884968745459e-05,0.0046267856319889425,0.05678823814236411,0.007489248940144393
247,6.157168762794873e-05,0.004566373126791992,0.058248117897067964,0.00784676287573085
248,7.014206368709835e-05,0.005671399516892892,0.06473510233043389,0.008375085891326585
249,4.696021646608159e-05,0.004664403797425526,0.07229967232798781,0.006852752473720417
250,7.960063494695871e-05,0.0047039799797229595,0.07797685940248922,0.00892191879289193
251,5.524661746692711e-05,0.004049262474147089,0.05281842173206064,0.007432806836379277
252,6.302709855794698e-05,0.004999126101344295,0.05600021000065836,0.007938960798363117
253,5.98370246510945e-05,0.005206830215397466,0.05778304837644532,0.007735439525398269
254,4.565470537834863e-05,0.004285007946399099,0.04399051967065781,0.006756826576015424
255,6.537718470661294e-05,0.004945338004313703,0.061922146104975706,0.00808561591386906
256,7.586356197591342e-05,0.005778651852889503,0.05940584371525315,0.008709969114521189
257,5.8598946559853194e-05,0.004001696252781804,0.05678749896824675,0.007654994876539932
258,5.613997147343532e-05,0.003764060791461944,0.060449391945727404,0.007492661174338172
259,6.238505148091897e-05,0.005176435778046225,0.044142797912798404,0.00789842082196932
260,5.9829591580624676e-05,0.00471088636044575,0.059821134358908123,0.007734959054877047
261,5.408646422955862e-05,0.004714426229524221,0.04532935592448806,0.00735435002087595
262,5.991917148895364e-05,0.004934258927621952,0.06533278016703825,0.00774074747611323
263,4.4736496151698956e-05,0.004087650855162887,0.0661181231934731,0.006688534678963583
264,5.7292094344682064e-05,0.005224953058925047,0.056546975896537344,0.007569154136670869
265,5.233833108126604e-05,0.004719919955709446,0.04385848425456773,0.007234523555927209
266,7.381435536309432e-05,0.0054851984780048876,0.05690415312410191,0.008591528115713393
267,6.839746474819581e-05,0.004396235703852223,0.06270909029667784,0.008270275977752813
268,5.2676291562862946e-05,0.004588391751666982,0.05464628875248484,0.007257843451250686
269,6.893923328021863e-05,0.005216932848463594,0.061561094773629366,0.00830296533054414
270,4.424129528844272e-05,0.004261253966982223,0.053967846085871685,0.00665141302945791
271,6.585742759553005e-05,0.005184245546049828,0.06422209514831967,0.008115258935827596
272,5.803518538146617e-05,0.005019792181291903,0.06150079984236079,0.007618082789092389
273,4.744658894828587e-05,0.004525914006804334,0.05128215009571907,0.006888148441220288
274,6.49016563909385e-05,0.004788671173778082,0.059017228378884234,0.008056156427908906
275,5.399596206079123e-05,0.004492942560260529,0.04825409554508919,0.007348194476249985
276,7.128862899648837e-05,0.005494022184455863,0.05290943744240284,0.008443259382281701
277,5.858606907653678e-05,0.004066793551709195,0.05345823360852364,0.007654153713934431
278,3.8637967152493525e-05,0.0037907415550152176,0.061908715743258735,0.006215944590526295
279,5.2459449137544465e-05,0.0038239002389900264,0.06483609706331511,0.007242889557182556
280,6.839384639716112e-05,0.006096900100270638,0.05618969747987901,0.00827005721849375
281,7.188082930675534e-06,0.0017463221095971007,0.019255053950328047,0.003791591468150396
282,2.797594179261193e-05,0.00233575987638186,0.03778724756055096,0.006107475396878993
283,5.173447399194869e-05,0.004901766771357542,0.04855140282000647,0.007192668071859584
284,6.37414605061675e-05,0.004555170878750733,0.054116187509677394,0.007983824929579008
285,6.170795217794573e-05,0.005063962252812943,0.06523889871777655,0.007855440928295827
286,7.266980304570007e-05,0.004848817228125732,0.06275251350192948,0.008524658529565821
287,6.874528175982416e-05,0.0043068736088705956,0.06340825851949639,0.008291277450418822
288,4.4481324982520044e-05,0.00454076691850525,0.06101330316378206,0.006669432133436811
289,4.5343168202421144e-05,0.004274871458572565,0.0501283219947366,0.006733733600493905
290,5.9520697442044424e-05,0.004816283595485327,0.07158839512110227,0.007714965809518786
291,5.532192073297982e-05,0.005039437421977476,0.04529203743779333,0.00743787071230602
292,4.5384188601066904e-05,0.0036293861934091876,0.06886671796909738,0.006736778800069565
293,5.418968594461453e-05,0.004458678392731154,0.052848861702194494,0.007361364407812828
294,5.2608351687545705e-05,0.004380349424496438,0.05715626303941512,0.007253161496033655
295,7.068325005802421e-05,0.005483972787708766,0.052955477251777516,0.008407333112112515
296,5.2256830756371006e-05,0.004605076113904404,0.05781960408511866,0.007228888625257024
297,4.847657296595663e-05,0.004986745147926598,0.048307168715097326,0.006962511972410265
298,5.915915635776452e-05,0.005247385807809879,0.05900759232263253,0.007691498966896119
299,6.699718120528986e-05,0.005605939190481472,0.04551768184143379,0.008185180584769605
300,3.553761455808076e-05,0.0039036538297867024,0.05749314822736373,0.005961343351802551
301,5.264409787828912e-05,0.004792519203934165,0.04886874285611764,0.007255625257570051
302,5.425876927240768e-05,0.005207793318285157,0.061279036593449465,0.007366055204273682
303,5.6993309099633084e-05,0.005241382488192766,0.045349930556866064,0.0075493913065645835
304,6.642310407893743e-05,0.005638799133889581,0.05939769394724115,0.008150037059973234
305,3.783306203437614e-05,0.0037604333653916268,0.06297858141362322,0.006150858642041443
307,6.169288395264562e-05,0.005299226755248137,0.05707621589451373,0.007854481774926036
308,3.1873418680532956e-05,0.002707003497757327,0.04927025772265825,0.006519040694307999
309,5.892847093760133e-05,0.005558254462115979,0.05765751740127478,0.007676488190416286
310,4.663065725043142e-05,0.004473155192033401,0.05043483071973487,0.006828664382617648
311,6.335542960188956e-05,0.004142987428274062,0.06730749917401369,0.007959612402742282
312,7.243310923454848e-05,0.005430654771942537,0.046110939642090454,0.008510764315532885
313,7.758982280903565e-05,0.005565614470983995,0.045345508495033826,0.008808508546231593
314,7.599036705220155e-05,0.005606413895978844,0.053847195492076505,0.008717245382126216
315,4.493320531546429e-05,0.0045992115303890545,0.0493719831273276,0.0067032235018283535
316,5.901437341112142e-05,0.004584893273411857,0.05495497486441159,0.007682081320262176
317,8.199306807568853e-05,0.006019678534370369,0.045319720369605854,0.009055002378557827
318,4.494323277789518e-05,0.004735850603989744,0.050066053598860225,0.006703971418338139
319,6.02675762356397e-05,0.005440502151738724,0.05692267812038265,0.007763219450436755
320,6.0536287167295725e-05,0.005425119068978511,0.05964518187495038,0.0077805068708468655
321,6.286459423150882e-05,0.004720974310919703,0.054939728390530185,0.007928719583356988
322,5.170050358369723e-05,0.0038955831288596367,0.05277495315351045,0.007190306223221418
323,7.576668938703496e-05,0.004836127600006834,0.052586209096121994,0.008704406320194051
324,7.024458478593632e-05,0.004865846483178274,0.0522475763699739,0.008381204256306828
325,4.348972173444167e-05,0.004168597719104738,0.04756190943025995,0.0065946737398025574
326,7.177668438791644e-05,0.005703758255376558,0.05468115365651979,0.008472112156240384
327,5.389388384204207e-05,0.005041625519287972,0.03795316788513303,0.007341245387673784
328,7.253764714239122e-05,0.004305213482763893,0.061181488551753205,0.008516903612369375
329,4.466351923339203e-05,0.00432228732645739,0.04896964950941751,0.006683077078217179
330,5.29492061331924e-05,0.004558293142763362,0.06410743811611042,0.007276620515953276
331,6.169962353470878e-05,0.004582739063337899,0.0563012473122797,0.00785491079100894
332,5.673655918100748e-05,0.0038373959566410207,0.06909744580661714,0.007532367435342423
333,3.782990621882069e-05,0.0035680023953018566,0.057157915151369254,0.00615060210213768
334,6.792286376892308e-05,0.0053601602261331835,0.054923969695700625,0.008241532853111877
335,6.913172591095157e-05,0.005008078683572484,0.05903677462646684,0.008314549050366542
336,5.841775732599578e-05,0.004499575630593183,0.06091485469061109,0.007643151007666617
337,5.834522167855537e-05,0.005176927653786572,0.06002823581539918,0.007638404393494417
338,6.42061596044237e-05,0.0054260136354539155,0.05438955822635827,0.008012874615543614
339,6.353785279905927e-05,0.005132348583382082,0.04960490184116306,0.007971063467258238
340,8.126007863573481e-05,0.005244160361458832,0.049965272675393635,0.009014437233445803
341,6.168015562677655e-05,0.00524064335898613,0.06214521256580863,0.007853671474334538
342,5.7066507688702546e-05,0.004716563563438088,0.06306825816458761,0.007554237730486252
343,4.9852547637675384e-05,0.0048946586698512436,0.05560941781127382,0.0070606336569514075
344,7.306405707762827e-05,0.005496930716956323,0.051755144402317765,0.008547751580247755
345,5.89668510994941e-05,0.0048064983119154355,0.06312654165732201,0.007678987635065799
346,7.869483758167954e-05,0.004520462448833442,0.07777649614658255,0.008871011080011058
347,7.321139483061802e-05,0.004871267954125587,0.0691857437413721,0.008556365748997504
348,5.2999920637614455e-05,0.004767324112248264,0.05509417525417393,0.007280104438647422
349,7.216680130253244e-05,0.0049109713286146,0.06211914823031495,0.008495104549240802
350,6.29280999763829e-05,0.005239358628891439,0.04461513402657724,0.007932723364417934
351,4.011870016511927e-05,0.004423420605278871,0.03674228519410083,0.00633393244083949
352,7.565479623531408e-05,0.005578081374562244,0.05984249216062576,0.008697976559827755
353,5.044844933897643e-05,0.004798115627765291,0.05055757498207658,0.007102707183812115
354,4.052178177014096e-05,0.004004374524388839,0.04929834239203057,0.006365672138128128
355,3.605788163390698e-05,0.0037110420978410117,0.05267796290194582,0.006004821532227806
356,7.132243977347643e-05,0.004563639035910219,0.05908209554221111,0.008445261379819794
357,7.137195315532182e-05,0.004532250622520359,0.06304816021546977,0.008448192301038214
358,4.958398677143297e-05,0.0036235872324790405,0.053817195378287774,0.00704158979005683
359,6.027694138609374e-05,0.005045416458122515,0.04671926707858276,0.007763822601405389
360,6.73881494212099e-05,0.004222543193296815,0.05247948765906929,0.008209028530904812
361,6.480331947967931e-05,0.005075949382360599,0.0507926041649798,0.008050050899197992
362,7.321366735155796e-05,0.0047092236751478615,0.07646469315367899,0.00855649854505668
363,5.000534196674601e-05,0.004057685615828119,0.05622445890851813,0.007071445535867859
364,4.264239965100884e-05,0.004605978234134053,0.050875531788510786,0.006530114826785861
365,6.57308406272117e-05,0.004779176608594364,0.057395887437765136,0.008107455866497899
366,8.322406083728653e-05,0.005505669488958567,0.049540877212570056,0.009122722227344539
367,9.12991112894721e-05,0.006032506129910227,0.05441361780276033,0.009555056843863933
368,5.119575219063339e-05,0.004371797245829945,0.0560476356762476,0.00715512069713943
369,5.498033040754162e-05,0.004718212716260859,0.06083297521978959,0.0074148722448563525
370,4.2048978113537865e-05,0.003751110747483418,0.05955063256492288,0.006484518340905318
371,5.743666498864234e-05,0.00424632171759955,0.05675238215664624,0.0075786981064455885
372,6.241160823048214e-05,0.00516905025061915,0.047506345164443964,0.007900101786083606
373,8.063052205896628e-05,0.005527571578696917,0.0796132931982303,0.008979449986439337
374,5.0166031980167626e-05,0.003884596909842108,0.061276634295431176,0.007082798315649501
375,8.197233398843746e-05,0.0047281605386577455,0.060185491531899116,0.009053857409327626
376,4.773345118611681e-05,0.004443143880204462,0.06259065255983798,0.006908939946628302
377,5.455768454922311e-05,0.0039012493907380446,0.06660265013158218,0.007386317387522866
378,5.178718758873855e-05,0.004297979385845431,0.06631628397505485,0.007196331536883092
379,8.46017698077337e-05,0.005155862334647919,0.04543582727780082,0.00919792203748939
380,4.49810976537635e-05,0.003830526437589521,0.04970037217910406,0.006706794886811649
381,6.487293238563598e-05,0.004649124633478992,0.06263496980293226,0.008054373494297076
382,8.13167038471891e-05,0.0058511666523291825,0.04255405704414761,0.009017577493273268
383,3.111991550686193e-05,0.003796199453646945,0.045172833751978114,0.005578522699322975
384,6.3193739767889e-05,0.004730356670567588,0.057799346688278685,0.007949449022912752
385,2.412684037588016e-05,0.0029808428940828495,0.04311121038726018,0.0056717828326879076
386,3.72799225619677e-05,0.004144047988823261,0.04699073486586691,0.006105728667568467
387,4.381713976461807e-05,0.004218307995572749,0.05991005361399426,0.006619451621140339
388,4.37521054130449e-05,0.004751560893080402,0.05732034466862501,0.006614537430013119
389,4.3805190442024216e-05,0.004387391762300284,0.055661319559612954,0.006618548968015854
390,6.997334180305587e-05,0.0063374756055780196,0.04610530458099382,0.008365006981650139
391,6.574032076683108e-05,0.004078165763839739,0.05863703914770424,0.008108040501060086
392,6.761706576297101e-05,0.004319523351540784,0.05788870774686572,0.008222959671734418
393,5.9532401767832814e-05,0.005135814414955804,0.05832556677496914,0.007715724319066379
394,6.363110090377676e-05,0.004124381017641614,0.05414942412481727,0.007976910486132848
395,6.33685645555945e-05,0.004545504018703298,0.0589915327248947,0.007960437460064243
396,8.188545871993004e-06,0.0016169254881318923,0.03317720846561346,0.004046861962556387
397,5.604181437214669e-05,0.0045413004157292694,0.04635355670817676,0.007486108092470084
398,7.25899908032271e-05,0.005619073044272599,0.051614586458671674,0.008519975986071009
399,7.262623445905018e-05,0.005403997023592413,0.05319853984060119,0.008522102701742675
400,6.765609831610006e-05,0.004605434041182397,0.07535778003519056,0.008225332717653395
401,8.544502856607016e-05,0.005744462930073454,0.07315559345397116,0.009243648011800814
402,6.205719252852374e-05,0.004633503542491855,0.04690114375318721,0.007877638766059484
403,4.844882680865646e-05,0.004412954928084237,0.05001053454702753,0.006960519147926837
404,6.807607424885133e-05,0.005967872263786138,0.05607562670850008,0.00825082264073414
405,8.746392009632377e-06,0.0015451256825032682,0.060195123594812265,0.0041824375690815265
406,6.174339420869628e-05,0.005794510511707021,0.0485533003994999,0.007857696495073839
407,4.432052624228776e-05,0.004177649776327487,0.06094857047054081,0.006657366314263276
408,3.973143684910856e-05,0.004434728449843428,0.039276033861240345,0.006303287780921039
409,4.320926184734254e-05,0.004396763180345359,0.055354093550697536,0.006573375224901
410,5.4564431596635006e-05,0.004068323974159805,0.06219856609851575,0.007715233921862389
411,5.052986266222108e-05,0.004185999685078658,0.05393639977952258,0.007108436020829125
412,2.6559035928752314e-05,0.0024884765735440793,0.048692945362616924,0.005950802290868252
413,7.176466138215231e-06,0.0014907950234544912,0.028427920867631712,0.003788526399067373
414,6.473003920651164e-05,0.00508822293692997,0.056752831390305014,0.00804549807075429
415,4.554721037042658e-05,0.004302426074523978,0.052374531634084565,0.006748867339815332
416,7.917353419399809e-05,0.00549528060498914,0.06996183212927942,0.008897951123376524
417,5.6552516462011344e-05,0.004807810544401071,0.06251949749018337,0.007520140720891553
418,6.108396075186287e-05,0.0052309700258162135,0.05299875284250366,0.007815622863973309
419,8.104924055246998e-05,0.004430546474886724,0.06480703821023415,0.009002735170628367
420,4.013988631981642e-05,0.004348522415121907,0.04689560632071732,0.006335604653055301
421,6.410524092326608e-05,0.004633531116641458,0.0597329602986818,0.008006574855908461
422,4.3475897506189546e-05,0.004334476795604238,0.04826213539777813,0.006593625520621346
423,5.4119859636353123e-05,0.004227808173539997,0.06481725504809668,0.00735662012315117
424,6.458541148128544e-05,0.005120979340408947,0.06276263166317131,0.008036504929463109
425,6.653526175178561e-05,0.005024092896037483,0.05628489165169226,0.008156914965339837
426,6.323505976936482e-05,0.003936040326277639,0.0735371106302507,0.007952047520567515
427,3.6938037460128266e-05,0.003510287301459264,0.04945635599981513,0.006077667106721782
428,6.9469902880862e-05,0.004938453112745326,0.06598826385930834,0.008334860699547504
429,5.446873197234301e-05,0.0047137922895076146,0.04843080442831926,0.007380293488225412
430,6.821030928254428e-05,0.004813371165798391,0.054087519190036515,0.00825895328007998
431,4.895860414710959e-05,0.004036894704370218,0.06015431762103818,0.006997042528605154
432,6.0188545545502945e-05,0.005010681031889723,0.060249843009336335,0.007758127708764705
433,7.361109546625942e-05,0.0052961085797419835,0.046926205995088566,0.008579690872418368
434,6.606868592539472e-05,0.00445955805327824,0.05485188005996389,0.008128264631850646
435,7.378046699134054e-05,0.005333989283851664,0.049454241127201204,0.008589555692312609
436,6.726624367400972e-05,0.0054210683999129875,0.04895202680058075,0.00820160006791414
437,4.130003286149733e-05,0.004023639569732755,0.1008824147689591,0.006426510161938342
438,4.9111997280894535e-05,0.0045320418686086855,0.055194275444870766,0.0070079952397881975
439,5.0418049779214826e-05,0.004653293870794944,0.05346152916537683,0.007100566863231027
440,5.490778882903622e-05,0.004490101258399585,0.06569217767440438,0.007409979003279017
441,4.5546197755522665e-05,0.0038630580388927505,0.05769740211166763,0.006748792318298315
442,4.827079792441267e-05,0.0037689716664402848,0.05501745851301143,0.006947718900791243
443,7.012374390696667e-05,0.004940392362438213,0.04655927464919313,0.008373992112903267
444,6.304406361220929e-05,0.004017629604702099,0.05700800588544963,0.007940029194669804
445,6.501699131788886e-05,0.004320288367095445,0.05828701333342484,0.008063311436245573
446,8.779343198637966e-05,0.004600828742313646,0.0745476438935635,0.009369814938747676
447,3.426208311372398e-05,0.0033493208819260645,0.05960965522471362,0.0058533821944004175
448,4.5126891691962816e-05,0.004835237352567995,0.04201888250604302,0.006717655222766527
450,7.480157531318475e-05,0.006015688771727085,0.05949536791484156,0.008648790395956205
451,6.063563515144017e-05,0.004829549857497563,0.05036636953032669,0.007786888669516179
452,5.8086192462565456e-05,0.004709784267830734,0.048888275537660064,0.007621429817466361
453,5.620095890982523e-05,0.004821316998726881,0.06102925902588563,0.007496729881076456
454,3.8837467482557576e-05,0.00438965715391023,0.05366677729339031,0.0062319713961600486
455,4.4344738095352186e-05,0.004201481360820937,0.05277907655377989,0.006659184491764114
456,5.933840886192576e-05,0.004324366040548343,0.056531913598979466,0.007703142791220044
457,6.777422297761806e-05,0.00439511906986457,0.058966944283944445,0.008232510126177645
458,7.733562124190857e-05,0.005107484438764874,0.04298276494532294,0.008794067388979228
459,5.448647355356059e-05,0.004619329052957084,0.0674195049223607,0.007381495346713984
460,3.6969017013007036e-05,0.003753983236677168,0.06084682735318214,0.006080215211076559
461,4.716692882372117e-05,0.004564378908462101,0.0553187696222337,0.00686781834527681
462,4.4399194172622445e-05,0.0042211299433662685,0.06087785858242034,0.006663272032014174
463,6.396069851811139e-05,0.004897774048208123,0.06004942782813616,0.007997543280164906
464,4.525325462044722e-05,0.004750477814346723,0.05061530007122972,0.006727053933219716
465,5.194543812816227e-05,0.0048649280332951905,0.05756773750699379,0.00720731837288751
466,5.298091230063379e-05,0.004477338195900544,0.062212263878246965,0.007278798822651527
467,5.605162950759977e-05,0.004198097149179151,0.06873812787230005,0.007486763620390262
468,6.68244164089017e-05,0.005310142775015638,0.05261184022715959,0.008174620260837885
469,6.419297658599711e-05,0.005130223007457657,0.05818296159266012,0.008012051958518281
470,6.522117624552985e-05,0.005636646765948761,0.05114633686114889,0.008075962868013285
471,6.586577362570745e-05,0.005552801605077657,0.05755358600080192,0.008115773137890636
472,5.038366238044885e-05,0.003914412689377818,0.06662046590679671,0.007098144995732932
473,4.3886285465845826e-05,0.004081608428716558,0.052742231299576225,0.00662467247989252
474,4.5971894942903466e-05,0.004507156976287582,0.05295529032441282,0.00678025773425341
475,7.982668136265856e-06,0.0020232336813732687,0.01703112134451318,0.0039956646846966
476,5.3287760140960396e-05,0.004493083219841352,0.04776212193353202,0.007299846583385159
477,6.160873753187482e-05,0.0044264335937135415,0.06574173404791761,0.007849123360724726
478,4.9830764839163746e-05,0.004535666695959763,0.04918423069316802,0.00705909093574827
479,6.360376903073211e-05,0.005345866846212465,0.0578496513984188,0.007975197115478195
480,5.319893223781658e-05,0.004604278458916398,0.06006532624389127,0.007293759814925103
481,7.321015951595345e-05,0.005347844731911466,0.053912462085353496,0.008556293561814778
482,4.554658118116002e-05,0.004129494347531083,0.04847887932801265,0.006748820725220044
483,7.334307642546461e-05,0.00542421233850069,0.04988807760371672,0.008564057240903061
484,7.754669898770315e-05,0.004438150977226753,0.06764247795832823,0.008806060355669991
485,3.8654847242414267e-05,0.002718750745251386,0.0611048945750301,0.007179122252979018
486,6.768507570480583e-05,0.005517803305939561,0.04072249330300304,0.00822709400121362
487,5.054932061938935e-05,0.0037556112682412966,0.06286864953149429,0.007109804541574178
488,4.7402530182665035e-05,0.004283954345228482,0.05348698702772792,0.006884949541039846
489,4.167563461186212e-05,0.003944811423621026,0.05426431898303563,0.006455666860353128
490,5.7505227372226935e-05,0.004765939943398307,0.06151546290303411,0.00758322011893539
491,5.229435742570788e-05,0.004917089322070211,0.05890304100154342,0.00723148376377264
492,2.12802215809545e-05,0.0024012817142989784,0.049807150052361845,0.005326690227017678
493,5.49532269465834e-05,0.004464877734487757,0.05937385522243943,0.0074130443777561915
494,4.985476439531439e-05,0.00494119895769794,0.05146115750752134,0.007060790635283976
495,5.7448319101678705e-05,0.004290226095025261,0.05534764492619004,0.007579466940470045
496,5.087793768212074e-05,0.004691310940234267,0.045703444242144675,0.00713287723728092
497,5.711887758111662e-05,0.004610552915256941,0.06386617768189962,0.007557703194828184
498,5.91593982400865e-05,0.004464656604689101,0.0649970919947398,0.0076915146908841
499,5.207463665300874e-05,0.0044119523434129875,0.056058938082164556,0.007216275816029232
500,5.627894374861835e-05,0.0044391126661071836,0.06198069505433007,0.007501929335085607
501,5.817955638402809e-05,0.004393348055786122,0.05849088280296777,0.007627552450427821
502,3.9158940930050584e-05,0.004476503642807985,0.05042076391450623,0.006257710518236695
503,4.029323832308392e-05,0.004223868436479,0.07257573992337907,0.006347695512789148
504,6.509237962291258e-05,0.005721441602194471,0.043537055759658494,0.008067984855148914
505,7.300935144839714e-05,0.004213401125036503,0.06856892130090664,0.008544550979916757
506,7.578937604818474e-05,0.004611543629599231,0.07224146844540069,0.008705709393736055
507,5.629667925109638e-05,0.0043036836367257815,0.06174527379365946,0.007503111304725259
508,5.408603094564393e-05,0.0052782472598268005,0.04573711524301527,0.007354320563154936
509,5.498004733986579e-05,0.004103604475472678,0.05249749356161448,0.0074148531569995105
510,6.679299513398371e-05,0.004550542990626195,0.05496121637782114,0.008172698155076024
511,6.603218525161635e-05,0.004638606536015951,0.0477808918557141,0.008126019028504421
512,6.149035162587235e-05,0.004341481945480113,0.06285146950012743,0.00784157838868374
513,6.956287270546528e-05,0.005275461869518242,0.044834272392707764,0.008340436002120328
514,7.472656908307884e-05,0.005445045008734671,0.05181890810765166,0.008644453081778983
515,5.778435053406241e-05,0.004515022431241959,0.047452462210344826,0.007601601840011249
516,7.472295104386483e-05,0.004898688096631605,0.06123613857550225,0.008644243809834619
517,6.233430132818483e-05,0.004538193347518156,0.057329791455672297,0.007895207491141974
518,4.516935794294438e-05,0.004741676632620238,0.043663942295060876,0.006720815273681013
519,3.725790365262166e-05,0.004237845859603915,0.05658593311505067,0.006103925265976098
520,6.98695473629448e-05,0.004690953638650349,0.06285184970939328,0.008358800593562699
521,6.136736512823286e-05,0.004353372395104656,0.0600277857689786,0.00783373251574448
522,5.066602162917054e-05,0.005054179863209756,0.0450876102893627,0.00711800685790414
523,6.261082534712448e-05,0.005068779809991976,0.05434344593620777,0.007912700256367877
524,4.218587665352702e-05,0.004339731609921624,0.05245486165833757,0.006495065561911336
525,6.066969948108564e-05,0.0052366332498736045,0.04921841213059541,0.007789075649978304
526,6.971056490711784e-05,0.00460538338290192,0.060513379892027874,0.00834928529319229
527,6.416929170557169e-05,0.004967125267559544,0.06385570675061958,0.008010573743844515
528,6.215916093848412e-05,0.005901392900295751,0.04879710446511076,0.007884108125747873
529,6.170527713864681e-05,0.004191878031863838,0.06179153230976242,0.007855270659795669
530,4.433336601109189e-05,0.0045373601477677475,0.04135550151630518,0.00665833057238011
531,5.623822922462079e-05,0.004017699965775247,0.0607393488936947,0.0074992152405848715
532,2.385264150305415e-05,0.002599169637533592,0.04073761680984659,0.0056394611448322
533,6.139046895029681e-05,0.00462287275579808,0.05915314163977947,0.00783520701387631
534,6.300036877109915e-05,0.00463686887961302,0.05041423022342284,0.007937277163555431
535,3.241727024757958e-05,0.0037400478110129406,0.03985572528149328,0.005693616622813592
536,7.072291354552146e-05,0.005307024655219529,0.05384459896588334,0.008409691643902343
537,5.161696425283907e-05,0.0049781279910263675,0.047411116127222375,0.007184494711031435
538,6.996145655780224e-05,0.004528107798072627,0.06204989425352814,0.008364296536936138
539,7.519912333488356e-05,0.004634614860907137,0.06798815629491095,0.008671742808391112
540,4.4732593010201116e-05,0.003971432508068906,0.059932452799169145,0.006688242894079186
541,6.323225336888373e-05,0.004072235406855862,0.06605463105343623,0.007951871060881403
542,6.544453905175823e-05,0.005484477702153524,0.057632249268642965,0.008089779913678607
543,3.8987051626269684e-05,0.0033227123433457583,0.04921926857998338,0.007209905373976293
544,5.805363108808931e-05,0.0054978356040955014,0.04788410662480641,0.007619293345717093
545,6.543443049475361e-05,0.005219211889925075,0.05966274716196196,0.008089155116249962
546,5.330411359384766e-05,0.004608902605377327,0.06199299967642258,0.007300966620513154
547,5.119572456370472e-05,0.0048831574498532085,0.0577825593372141,0.0071551187665687506
548,5.687299090125913e-05,0.004880328638937717,0.05878997266276778,0.0075414183613733195
549,4.002277708020751e-05,0.0036861160429065565,0.056314077997738465,0.006326355750367438
550,8.298634044199909e-05,0.00444023152192987,0.07307674799463548,0.009109683882660164
551,5.238285586959481e-05,0.004616189732063206,0.04820349627829043,0.007237600145738511
552,5.935687179997788e-05,0.005388734428593406,0.05130970363384668,0.007704341100962324
553,5.4802497742355024e-05,0.004885494953306485,0.04909582688344738,0.0074028709121768685
554,5.7351168187832104e-05,0.0040387141696145035,0.06682908259724085,0.007573055406362193
555,6.50944410902402e-05,0.005376182452046531,0.056385028386828795,0.008068112610161026
556,7.456065868046087e-05,0.0046997582822179765,0.06885340169035725,0.008634851398863812
557,7.206390580817841e-05,0.004959901024619187,0.048784914263545254,0.0084890462248817
558,6.458624853916262e-05,0.004723294358271416,0.07463831914538482,0.00803655700777153
559,7.104337585994273e-05,0.005256439381110182,0.048081853425294696,0.008428723263931622
560,4.7152250937325056e-05,0.0050950342721721754,0.048029211756061896,0.006866749663219463
561,5.6898738261505744e-05,0.004795676064411689,0.054146477644567814,0.00754312523172624
562,5.007456644846971e-05,0.004813933368870238,0.057900931363185304,0.00707633849165438
563,4.225589014495884e-05,0.004655521025394045,0.04424904676158797,0.006500453072283391
564,3.796391077643037e-05,0.004031841529563411,0.060981342598194654,0.006161486085063414
565,6.088132689247594e-05,0.004629305578123329,0.06641573028856607,0.007802648710051965
566,6.31442931790221e-05,0.004083312957741855,0.07407787403103416,0.007946338350398966
567,5.578909383121273e-05,0.00455231860659051,0.05096396003511994,0.007469209719321863
568,6.936249676034798e-05,0.005184493461619669,0.05563041257376654,0.008328415020899685
569,6.551696281197609e-05,0.005563639889223082,0.0512321592809708,0.008094254926302712
570,7.47360969777727e-05,0.004646513909110703,0.06596990225126298,0.008645004162970208
571,5.460686982047081e-05,0.004797742527316226,0.05877197515427923,0.0073896461228174035
572,4.327663409622486e-05,0.004061294849372937,0.060128034730876564,0.0065784978601672
573,6.196749234523874e-05,0.004606723722336343,0.06790188710151845,0.007871943365220447
574,4.9706223731062615e-05,0.004080534658932947,0.051872930340989054,0.007050264089455251
575,3.6680638203689746e-05,0.004406928701129511,0.04314293649821099,0.006056454260017926
576,4.65193419884946e-05,0.004595054829828064,0.05338627503613358,0.006820508924449425
577,5.804878506636962e-05,0.004917060640575524,0.061911326793909094,0.007618975329161336
578,7.161572343330036e-05,0.00508328392439884,0.07331950973228718,0.008462607366131336
579,6.654220840537866e-05,0.005201959875145669,0.06042913932198868,0.008157340768006324
580,6.727514175460448e-05,0.0051069917448366125,0.05710840755154134,0.008202142510015505
581,7.299152469526892e-05,0.0049980304652767074,0.06926229573947573,0.008543507751226559
582,4.074698528361533e-05,0.003989852380506417,0.041231185681075644,0.006383336532223166
583,2.6612677501833347e-05,0.002774574045736111,0.04066787817599948,0.005956808709572948
584,6.834916049800783e-05,0.004160728226284432,0.0701241512164108,0.008267355108981779
585,4.831062052688188e-05,0.004370494168475303,0.061024814242490066,0.006950584186014979
586,4.961299987551737e-05,0.0039973927562673445,0.054369187934605545,0.007043649613340879
587,5.594505825083995e-05,0.005278273834403919,0.04755361216241227,0.0074796429226828545
588,7.825398684397794e-05,0.005094449888516397,0.061882317554652566,0.008846128353351947
589,7.639039980957394e-05,0.004845007731617563,0.05897834640642019,0.008740160170704742
590,5.2969889678319555e-05,0.0038362931399001272,0.05184410859836586,0.007278041610098094
591,4.6479318964007035e-05,0.0036052154907737213,0.06271168154106599,0.006817574272716546
592,8.712309110829765e-05,0.007598302637516194,0.04078762715451245,0.00933397509683291
593,6.654010783674387e-05,0.005275301209394237,0.0563122943778791,0.008157212013717888
594,3.314139420593759e-05,0.003116176688689104,0.06714407698034894,0.005756856278033809
595,6.52895729547688e-05,0.004564618373801695,0.06316444610103922,0.008080196343825334
596,7.291176153421315e-05,0.004435912076773849,0.06841708676155189,0.008538838418322033
597,7.975900169362585e-06,0.0017124788740117399,0.019486849084133832,0.0039939704979788
598,7.832494982054335e-05,0.005183634863662483,0.05537405021388786,0.008850138406857985
599,7.012118703762758e-05,0.005484762248433261,0.048520218866035414,0.008373839444223109
600,8.296993252268572e-05,0.004556938499410443,0.06296344607972992,0.009108783262471712
601,8.858295337467394e-05,0.0061882867370642,0.051303653907092794,0.009411851750568178
602,5.344684515625436e-05,0.0047095377284393745,0.058309727023657,0.0073107349258644296
603,6.935080086509483e-05,0.005187805326255257,0.0458524727697629,0.00832771282316426
604,6.799986749786481e-05,0.00535254552253267,0.05290926747710056,0.008246203217109336
605,3.9948481474805e-05,0.003499114482408274,0.05482107758689647,0.006320481111023501
606,7.131312928459492e-05,0.0044813429476498945,0.05532668934641011,0.008444710136209205
607,4.027870235142838e-05,0.003243725163053105,0.06839468764787782,0.0063465504292826765
608,3.012293522650683e-05,0.0037659150988481305,0.050278962345580824,0.0054884365010908695
609,5.8041599620718985e-05,0.00432711805370409,0.06263650408198851,0.007618503765223083
610,4.9888035147115484e-05,0.004238783346052173,0.042369546233063105,0.007063146264032409
611,5.391941039413447e-05,0.0053205760548579025,0.0501695742670778,0.007342983752816961
612,4.615304249442751e-05,0.004176551077085273,0.06276696720140595,0.0067936030568783706
613,6.720051223036764e-05,0.005132864738599439,0.057108691750785034,0.00819759185556141
614,5.952817382796346e-05,0.00446964525675945,0.058553351437178325,0.007715450332155804
615,7.031759961217942e-05,0.0050070565279466015,0.0573072035049953,0.008385558992230575
616,5.985252208480153e-05,0.004939652145622764,0.055559172329273654,0.007736441176975447
617,6.585364376207476e-05,0.004170123780831397,0.06101194056658635,0.00811502580168876
618,4.811977130001534e-05,0.004648051911843756,0.063024685511118,0.006936841593983181
619,7.160001614530018e-05,0.004427377510004334,0.05904262883237932,0.008461679274547097
620,7.859246037624233e-05,0.004708069892803797,0.06652272933044312,0.008865238878690278
621,7.096985324400124e-05,0.005042205896398538,0.06835748890791216,0.008424360702391658
622,5.1607531295125566e-05,0.005093822099357348,0.04531532114952164,0.007183838200789676
623,5.70488706327207e-05,0.004742763757305867,0.05749787481051838,0.007553070278550312
624,5.925717024204801e-05,0.0046236102785933665,0.07320978247834153,0.007697867902351111
625,6.047550424921353e-05,0.004873573510879878,0.06584402236360987,0.007776599787131442
626,4.684016058639619e-05,0.004687269798304521,0.04566154721441018,0.00684398718485034
627,5.718028398694021e-05,0.004470442233480029,0.05174654455519523,0.007561764608009126
628,2.1773404972571926e-05,0.0022614832321817763,0.05430698788130035,0.005388061490934897
629,4.253922445490531e-05,0.00415544133305071,0.05327329487876309,0.006522210089755243
630,5.76401623179332e-05,0.004565368321819745,0.056502304638303386,0.007592111848355033
631,6.247975549167844e-05,0.004969855133281439,0.04449055405394631,0.007904413671593745
632,5.99786880199453e-05,0.0052536940894822425,0.0539438591587138,0.007744590887835507
634,5.1497501775512754e-05,0.005156678365484288,0.046417664185164575,0.007176175985544961
635,6.416478204795311e-05,0.005252712490702084,0.06800948165815457,0.008010292257336979
636,5.021396771039547e-05,0.004197144072830031,0.05315630470139798,0.007086181461859065
637,5.674601315825175e-05,0.0048506945666721025,0.05393686480737703,0.007532994966031196
638,7.576078952680474e-05,0.005948242194503693,0.047230386803051284,0.008704067412813623
639,7.346220690290889e-05,0.00495178658421042,0.061687819016175816,0.008571009678148105
640,4.487228540752389e-05,0.0046505195151361105,0.047497898651722714,0.006698677885039958
641,4.286712122557802e-05,0.003811822811314298,0.051204242286019885,0.006547298773202409
642,7.616778119006749e-06,0.0018373342209840279,0.02779306022225394,0.0039030188621134434
643,2.9922613868791332e-05,0.0028032646941489143,0.05100526473608058,0.006316392838616143
644,4.3498784225670455e-05,0.0042508497246433845,0.0429363140914637,0.006595360810878362
645,3.370716417529932e-05,0.004010606796535542,0.05517970891250412,0.005805787127969726
646,5.777534363692795e-05,0.0050717743545778855,0.052090949068589465,0.007601009382768029
647,7.906832297605588e-05,0.0049053121023194205,0.07646889598846496,0.008892037054356823
648,4.14608228800094e-05,0.004538027010387486,0.056634379098267296,0.006439007911162164
649,5.787131698568292e-05,0.004719409925770416,0.05445795545900545,0.007607319960780038
650,5.322714088986249e-05,0.004688326660847684,0.06615096686761479,0.0072956933111159505
651,6.44970453931379e-05,0.004713220617713556,0.06048360004946418,0.008031005254209314
652,4.2905554438891516e-05,0.0035907889608366855,0.07268375448792419,0.006550233159124267
653,3.644583877887333e-05,0.0029708128329792574,0.05302819024012795,0.006970972077491356
654,6.021741799703159e-05,0.00477174540678706,0.05767467098824475,0.007759988272995719
655,5.301333033224171e-05,0.005074781402377918,0.05424295792329836,0.0072810253626973045
656,7.441756761220835e-05,0.004991425341673223,0.040613706623310986,0.00862656174916795
657,4.6030958468754456e-05,0.003861019347488582,0.06405269518519763,0.0067846118878498885
658,5.0315945876311976e-05,0.004596604090165323,0.04682730226091625,0.007093373377759798
659,3.157240913070841e-05,0.0033918491818963835,0.05285393544871875,0.005618933095411269
660,7.37704429350358e-06,0.001350274713303207,0.023071131725018453,0.003841105125742727
661,6.973113432617964e-05,0.0053090034343841646,0.06768776367912466,0.0083505170095138
662,5.3795329232942466e-05,0.004088510016664536,0.0647063559880392,0.007334529925833134
663,7.535146825027015e-05,0.006083392108064662,0.049117083408232176,0.008680522348929798
664,6.993121527574624e-05,0.0050197908241288985,0.05275791738691504,0.008362488581501657
665,6.658562452216223e-05,0.003989365695457124,0.06592861441196862,0.008160001502583279
666,8.953386187090521e-06,0.001966665942710642,0.01604242374934559,0.0042316394428378295
667,7.728249631007219e-06,0.002144260455620307,0.01280730577962339,0.003931475456112421
668,7.520675694534536e-06,0.0015396858956712473,0.023532414120955462,0.0038783181134441403
669,7.443351033923654e-06,0.0017693016561240432,0.017305692274782795,0.003858328921676732
670,7.915132212899203e-06,0.0017791095834124358,0.02217889493255113,0.003978726482908602
671,8.200463752917088e-06,0.001733229818122968,0.027252543736474476,0.004049805860264662
672,8.297833516979125e-06,0.0016084057229969254,0.027977948657570386,0.004073777980444936
673,7.450242037193405e-06,0.0017423381025229304,0.022586076776240558,0.0038601145157088927
674,8.197593062164797e-06,0.0017101828175749782,0.026689491204035073,0.004049096951707804
675,6.698245117658383e-06,0.0015428970220022317,0.024727794100825044,0.0036601216148260205
676,7.93930173914061e-06,0.0014869242705827092,0.02290491776730736,0.003984796541641869
677,7.680025489196865e-06,0.001493239828330832,0.024726285379651578,0.003919190092148319
678,8.166307535200464e-06,0.0012152031689464237,0.028962110646286128,0.004041363021358094
679,6.98195085516528e-06,0.0014436590622589453,0.02507823852626334,0.0037368304363899645
680,7.671328499122437e-06,0.0016238063303331235,0.02287927267330847,0.003916970385163094
681,7.796253296787117e-06,0.0016077180883450385,0.028378414548228963,0.003948734809223588
682,6.957212698362286e-06,0.0015306661230120938,0.02988970840933003,0.003730204471168372
683,6.888018902898487e-06,0.00122938363382034,0.024910117144421703,0.003711608520008112
684,7.051254319356365e-06,0.0015630826160151592,0.0243596900900096,0.0037553306963185717
685,4.583021866759028e-05,0.0034142776583603934,0.055823264158873065,0.006769801966644968
686,7.826819730810684e-06,0.0014695644047323835,0.029290226809267437,0.003956468053911368
687,4.6215088485929864e-05,0.003369546827857073,0.05789170160128054,0.006798168024249584
688,8.85003036197175e-06,0.0016970585151361872,0.027617887749471336,0.004207144010364194
689,4.6920290901766474e-06,0.0011344294410862868,0.02523708160450422,0.003063341016007399
690,6.564966205205828e-06,0.0012622230286782543,0.023432636183947864,0.003623524859913562
691,6.598482003701535e-06,0.0014002343172145092,0.02164341737779285,0.0036327625861598653
692,7.647202709764154e-06,0.0017825206355170133,0.024807671138745064,0.003910806236510337
693,7.888984447224438e-06,0.0016472479411950918,0.025036468645116647,0.003972149153096927
694,7.583581248246703e-06,0.0013978791191297342,0.022640322214053654,0.0038945041400020764
695,9.246804118224585e-06,0.0016076715350678019,0.02928742421667774,0.0043004195419108805
696,2.2332473376192505e-05,0.002920903261288409,0.03885178626497643,0.005456796786417508
697,1.3069988252459619e-05,0.0022551371215217253,0.05214315235487111,0.004733465342333596
698,7.549630514143686e-06,0.001678383562637407,0.023369944995740265,0.0038857767599653936
699,1.0045483273926267e-05,0.0015968391706591121,0.03144545647821575,0.004482294785916305
700,6.7353292991000755e-06,0.0014070800842206244,0.02775987089060461,0.0036702395832152366
701,7.599606486422041e-06,0.0012980133918120288,0.025395481551091816,0.0038986168025139244
702,8.420966917154956e-06,0.0019745757206482742,0.023914995720180417,0.004103892522265864
703,6.365845885669955e-06,0.0013724060173338664,0.028733105831584817,0.003568149628496504
704,7.926645264522651e-06,0.001685142905560695,0.02682970203185852,0.003981619083870911
705,5.671239460761618e-06,0.0011679725537275234,0.024017916990310972,0.0033678596944532943
706,7.611678031570257e-06,0.0017946439125123867,0.02353938674560769,0.003901711940051488
707,7.685613413167881e-06,0.0013686697517908911,0.06946393599313327,0.003920615618284397
708,5.394945928677279e-06,0.0011643625722389248,0.022594830682520772,0.0032847970800879652
709,8.82855476971435e-06,0.001711936722805912,0.028181095048488997,0.004202036356271631
710,2.8871825488546895e-05,0.0032123375873371637,0.05597192838039167,0.005886101476041336
711,6.811660674913363e-06,0.0016632299711698397,0.027167202085375496,0.0036909783729827824
712,6.752829764962315e-06,0.0012485267655859358,0.02119207111816551,0.003675004697945905
713,7.969853874390198e-06,0.0015676871400476288,0.02702417365426535,0.003992456355275569
714,7.667998418464604e-06,0.0014639581551217087,0.05148922005610835,0.00391612012544675
715,7.0041179611955086e-06,0.0014325352431847405,0.022403059252529826,0.003742757796383685
716,7.613217753604664e-06,0.0015596734116216867,0.02201397525887591,0.0039021065473932395
717,8.05620659567061e-06,0.0018390819924058105,0.027907670404864866,0.004014027054136657
718,7.872575846006284e-06,0.0016521895914460637,0.020086308800690535,0.003968016090190721
719,8.001037609749093e-06,0.0017486399194257922,0.021233761928961908,0.004000259394026591
720,7.89063399591307e-06,0.0017535575609423462,0.031233549713440938,0.003972564410028612
721,2.800092990525169e-05,0.002456978305245556,0.05444625571977468,0.006110202386746438
722,7.832388074879612e-06,0.001622417537109328,0.02678844872116337,0.0039578752064408345
723,8.225320378621985e-06,0.0021124458159249835,0.01743967777726293,0.004055938948904899
724,5.464378546631798e-05,0.004080615504999029,0.06376133902082115,0.0073921434960583276
725,7.228852879103732e-06,0.0014702872279429532,0.02212799339524497,0.003802328991316676
726,7.695740309548102e-06,0.00205784522581575,0.01736031058858221,0.003923197754268323
727,6.20618268547188e-06,0.00134041240309895,0.0233065665578005,0.0035231186995251227
728,6.46046970836359e-06,0.0014452417919399384,0.023684526186533716,0.0035945708251093004
729,7.759412354506987e-06,0.0019651099310232342,0.025446107489027255,0.003939393951994874
730,6.89436918562592e-06,0.0013339727551151346,0.022228105283087274,0.003713319050559983
731,8.01268628656236e-06,0.0015564984287803735,0.02652581068628164,0.004003170315278192
732,7.944181155929693e-06,0.0015417015725203381,0.023096016465550172,0.003986020861944791
733,2.5682140614986505e-05,0.0025315277829257173,0.05631479392823735,0.005851739412628944
734,2.2184524929667604e-05,0.0030027026406878746,0.03957586265068297,0.004919481672216441
735,6.991823425595478e-06,0.0015172146638197182,0.02680411546639869,0.0037394714668239977
736,6.672821172264098e-06,0.0018284941999416266,0.013307003365889589,0.003653168808654765
737,8.16593797201476e-06,0.0021067091021017633,0.016790102252863492,0.004041271575139357
738,9.00609732292175e-06,0.0015399736374108412,0.02583225981309299,0.004244077596586008
739,8.539815660562107e-06,0.0015224743355937117,0.027715443416933924,0.0041327510596603795
740,7.952274976628228e-06,0.0015789141955109827,0.0349218238899,0.003988050896522799
741,7.715852966011768e-06,0.0015500663264724059,0.027175812015392962,0.003928321006743644
742,8.07348768472932e-06,0.002027472723572694,0.01717185365694848,0.00401832992292301
743,7.0219815542419495e-06,0.0016207666196449576,0.02013187198831765,0.00374752759942922
744,9.273362407093433e-06,0.0016989818029835963,0.025429105797807196,0.004306590857532964
745,9.497156146427965e-06,0.0017095670775815728,0.027278095608822522,0.004358246469952749
746,4.597907100422033e-05,0.004226013744018264,0.056096035126079524,0.007082300936140614
747,7.062066960090586e-06,0.001609952775971037,0.018043732671293,0.0037582088712817745
748,5.792426102761217e-05,0.00475262308951342,0.05755314707314696,0.0076107989743266595
749,7.451821994133808e-06,0.0014878656061728655,0.023253687514734035,0.0038605237971378248
750,6.827362027451046e-06,0.001280849679438474,0.02395640861231091,0.0036952299055541733
751,6.752146410382764e-06,0.0013060097858600922,0.02532969097734516,0.003674818746654779
752,7.502665247835057e-06,0.0016837181675439757,0.02272707240643654,0.003873671449112574
753,8.394756371142186e-06,0.0014455234802860373,0.029827776030991987,0.004097500792224963
754,6.951141864589181e-06,0.0013621564912911727,0.027159815981096586,0.0037285766358193732
755,6.885486835458397e-06,0.0016481116476944726,0.023172959211336573,0.0037109262551169937
756,6.8747478870342246e-06,0.001606900795676877,0.016890134895892087,0.0037080312531137575
757,6.1007517855817704e-05,0.005251032583040643,0.05281291774368882,0.007810730942480187
758,6.422779972774648e-05,0.0036701365459228096,0.06291665372683042,0.008014224836361014
759,8.426081476998322e-05,0.00495842701895405,0.05913633611987468,0.009179368974498338
760,8.221575395417436e-06,0.0017992004471538148,0.0204507389603795,0.004055015510554142
761,7.817530488220148e-05,0.005441793639383381,0.056938520570275486,0.008841679980761635
762,5.070642644830054e-05,0.004975432102274351,0.04443844250352083,0.007120844503870319
763,3.68239387100647e-05,0.004237945272109628,0.04013003334559495,0.006068273124214542
764,7.862652615696762e-06,0.0019856808453093907,0.01852593149678838,0.00396551449769047
765,5.7702577879828595e-05,0.004382605347917719,0.07145570712537519,0.0075962212895510145
766,7.136114953119043e-05,0.005253949249534118,0.057581744795414114,0.008447552872352427
767,6.186809642960196e-05,0.005252664949748463,0.04117750501481643,0.007865627529294875
768,6.228875073497927e-05,0.00523495733740246,0.05028677854207553,0.007892322265023045
769,5.5688214509031685e-05,0.003763706141496686,0.07065418489479303,0.007462453652052459
770,7.265808884464133e-05,0.004788614723477212,0.05379540577824615,0.008523971424438302
771,4.3755990240231654e-05,0.0036076030914012533,0.05515459967510061,0.006614831081760992
772,3.5647265518859144e-05,0.0028255051874704197,0.05643206370519205,0.006894177786979272
773,4.132216518083426e-05,0.0038045496047613434,0.05130625972153546,0.0064282318860503194
774,6.785567491213815e-05,0.004948101650645523,0.062310132132539664,0.008237455609114859
775,3.801607036369325e-05,0.003991926245266355,0.05745067499716594,0.006165717343804608
776,5.7953524437936694e-05,0.005106572063426233,0.05093097142196079,0.007612721224236193
777,4.372229286448598e-05,0.004476958692289326,0.04649463915216723,0.006612283483372874
778,6.547994677355444e-05,0.005806492802171427,0.048682410468879445,0.008091968040813908
779,6.419637928365207e-05,0.005192358348585141,0.04421473998400982,0.008012264304405561
780,3.288511142142237e-05,0.0031877717856515658,0.057925465838875034,0.005734554160649467
781,4.48477016164004e-05,0.004646152220948625,0.050010271035289655,0.00669684266026909
782,5.094165994782524e-05,0.004079015172197877,0.07622950957839136,0.00713734263909369
783,8.22087301302681e-06,0.0016258205944984893,0.028687353183318307,0.004054842293610625
784,6.352287065888804e-05,0.004912734092341625,0.06296946113844726,0.007970123628833342
785,5.570322663253869e-05,0.0038604711524123365,0.05101886848994619,0.007463459427942138
786,5.306401919311568e-05,0.004551454414589614,0.049042672125074516,0.007284505418565847
787,5.342036311240214e-05,0.004839389882328885,0.043750486938012756,0.007308923526238443
788,5.237189082410755e-05,0.004273587902732551,0.05495359963620983,0.007236842600478993
789,4.5802393290528216e-05,0.004344517094001157,0.05894639976867788,0.006767746544495292
790,5.236265932207161e-05,0.004774438568742339,0.06534441263737811,0.007236204759545661
791,5.627694787324104e-05,0.004271959858810693,0.045093576936703794,0.007501796309767445
792,5.477454119360226e-05,0.005436731268680493,0.04293890798882327,0.007400982447864742
793,7.04057507579011e-05,0.004987633905232961,0.05764009946644749,0.008390813474145423
794,6.126141830952529e-05,0.005135274603135499,0.05342057697636704,0.007826967376291061
795,4.803966095284579e-05,0.004476050913506297,0.06246339119274502,0.006931064921990378
796,6.117884535724036e-05,0.004373618978229733,0.06610738879825884,0.007821690696853208
797,6.279500392890889e-05,0.005410123886531116,0.05370191129499391,0.007924329872544952
798,9.50892358306986e-06,0.0018011362176637846,0.026963151276641163,0.00436094567337631
799,4.9109957887119084e-05,0.004693110317995297,0.04825226350456857,0.007007849733485902
800,6.43429651051206e-05,0.004225669572798354,0.07841710769042273,0.008021406678701692
801,7.55319246271873e-06,0.0015112118107737445,0.024720011743641704,0.0038866933150735277
802,8.76507717623434e-05,0.004947196958171751,0.05402674392648077,0.009362199087946334
803,4.846198987033802e-05,0.004535459777019194,0.04718185425342586,0.006961464635429654
804,6.099423957809667e-05,0.0050788841666345825,0.04686540035525644,0.007809880893976315
805,5.897056454224492e-05,0.004582938032390705,0.06500640948700198,0.007679229423727643
806,4.93489251668767e-05,0.004725042614562276,0.056396877405920254,0.007024879014394218
807,8.965228373043794e-05,0.005088604385472437,0.05253468293817676,0.009468488988768854
808,5.56016716574702e-05,0.005468980844160662,0.04204063217441839,0.007456652845444095
809,5.263406176682272e-05,0.004812587266148435,0.05665199896762685,0.007254933615604097
810,2.941126562706165e-05,0.0037461833370232077,0.049298894047757,0.00542321543247745
811,5.0735102919111094e-05,0.004344330643402145,0.06567221796683431,0.00712285777754341
812,4.773845113739682e-05,0.004174890742584416,0.06877437981431411,0.006909301783638948
813,5.463242822336811e-05,0.005178708265551724,0.053888242411261666,0.007391375259271283
814,5.848182331945534e-05,0.00457867449369327,0.058901107554377274,0.007647340931294663
815,5.469981112359992e-05,0.004703527486934034,0.04398056030128078,0.007395932065912962
816,3.130865692546614e-05,0.00340004284310303,0.0487715044202961,0.005595413919047091
817,7.771967566426413e-06,0.0016163526466488889,0.02503756837664491,0.003942579756054742
818,6.186548070205533e-05,0.004950642696811768,0.051853928064392374,0.007865461251703853
819,3.42385748161763e-05,0.004221716018529561,0.048405969438030994,0.005851373754613173
820,6.58223522795559e-05,0.005079476681186757,0.06608210692840277,0.008113097576114526
821,4.756307699575341e-05,0.003934374721800459,0.05597405332324357,0.006896598944099387
822,6.028682429498502e-05,0.004456798644870477,0.06456072219594788,0.007764459047157399
823,6.204325441053543e-05,0.004547186316507369,0.06555701212250464,0.007876754052941798
824,4.7661052142623684e-05,0.0041222205464607415,0.056417545390282875,0.006903698439432515
825,5.486023492126949e-05,0.00423696205299572,0.05998247790766653,0.0074067695334247225
826,5.6108035088695586e-05,0.004113066439666565,0.05285497194951505,0.007490529693465955
827,6.742711708605945e-05,0.004217924258591149,0.06964071790287706,0.008211401651731504
828,5.6809002254478936e-05,0.004603958959162502,0.04890359974663261,0.007537174686477584
829,6.466716107014578e-05,0.004329827879598436,0.06362773853457027,0.008041589461676426
830,4.845184666054611e-05,0.004532484233275205,0.04825525883795123,0.0069607360717488615
831,4.722604809567804e-05,0.004209885901482144,0.0476566090064936,0.006872121076907611
832,6.923978800020393e-05,0.005181556229330183,0.05125698785889643,0.00832104488632308
833,6.49723755435694e-05,0.004762803943498526,0.06731926426736967,0.008060544370175563
834,5.561745358399566e-05,0.003832645752081113,0.05974855121051781,0.007457711015049816
835,5.8925745274772643e-05,0.004258455268085259,0.049775167815632404,0.007676310655176248
836,7.142436644808914e-05,0.004479463576582066,0.05760273349832623,0.00845129377362357
837,6.099370659220901e-05,0.004626125258157404,0.04953566800411924,0.0078098467713655405
838,5.8635719049016845e-05,0.004645553379950317,0.06152725373390222,0.007657396362277229
839,5.388670290769809e-05,0.004794755740934602,0.0487565975020714,0.0073407562898994035
840,6.342458312967127e-05,0.004950071940980687,0.05331569343668896,0.007963955244077562
841,5.1818103490352644e-05,0.004403744025028496,0.06718926154387006,0.0071984792484491
842,5.3357663564326646e-05,0.004456660663559575,0.06354410291098445,0.007304633020510074
843,6.896273393108559e-05,0.004864528756787728,0.04094562446093519,0.00830438040621243
844,6.513525113807752e-05,0.004021887867596435,0.05694520079792387,0.008070641308971484
845,6.759107314146359e-05,0.00536333326269991,0.05367206609872954,0.00822137902918135
846,5.2568265219788747e-05,0.00486291398916812,0.05756878026751622,0.0072503975904627815
847,7.917604039233157e-05,0.004950829236647273,0.06326983691450927,0.008898091952341857
848,5.6191769493911364e-05,0.004100391870684389,0.05175979242196682,0.00749611696106131
849,4.13250258287117e-05,0.0040839892748119645,0.04343266608054153,0.006428454388786714
850,4.8990062246250584e-05,0.00446553900470567,0.05213676226394126,0.0069992901244519306
851,5.225831887569461e-05,0.0050077583590169734,0.045040158828922205,0.007228991553162458
852,7.370873712492004e-05,0.004644109570903,0.05150934540195984,0.008585379265059829
853,7.631131210270706e-05,0.005220760767167652,0.05681779298855183,0.008735634613621753
854,6.803020078811267e-05,0.005218310348605034,0.04694931267559532,0.008248042239714341
855,5.1293041050720316e-05,0.0046284938187320926,0.04962781669301852,0.007161916018128106
856,6.267965710915707e-05,0.004799977871287437,0.05934027805274633,0.007917048509966124
857,6.980341137530477e-05,0.005009465108505063,0.06662638402996812,0.00835484358772228
858,6.751932026914972e-06,0.0014291224747054138,0.02263342063780357,0.003674760407676915
859,4.099891605603442e-05,0.003999941858270659,0.050461166288492176,0.006403039595069989
860,5.7588651359475774e-05,0.004858741764781966,0.05760097640771811,0.007588718690231912
861,8.08956751366708e-05,0.005175065083217342,0.05290038805377417,0.008994202306856923
862,7.205271294064536e-05,0.004310255247245478,0.05506238618027748,0.008488386945742122
863,7.638665019459906e-06,0.0014694124888589666,0.023941961087043644,0.003908622524486038
864,4.450943908656156e-05,0.0033695727359805763,0.06333091781778055,0.006671539483999258
865,4.185372412842825e-05,0.0038870664881474138,0.050820004260935026,0.006469445426651943
866,4.377174481401681e-05,0.004071349927818159,0.06475264180581863,0.006616021826899953
867,2.882663481215506e-05,0.003461913197820616,0.05264852426379285,0.005369044124623563
868,5.502557967660266e-05,0.0039856325794770855,0.04986404414753043,0.007417922868067739
869,6.099259173293512e-05,0.004059890756554994,0.06854848405053016,0.0078097753958058635
870,7.682432512163809e-05,0.005614236421082231,0.053715260328583536,0.008764948666229448
871,4.940167216239546e-05,0.00362363502150882,0.0523317460986501,0.007028632310940368
872,5.6412915257829136e-05,0.004320907138977661,0.05849212540985338,0.0075108531644433735
873,5.483456845362016e-05,0.005131051818857077,0.053162074518839475,0.007405036694954291
874,7.646743902751928e-06,0.0019540678802149286,0.017145483608477556,0.003910688916994519
875,5.3770785295574894e-05,0.0035139494855857306,0.06905715961290326,0.007332856557684369
876,6.619361255179749e-05,0.004635657227682371,0.06684157550739123,0.008135945707279348
877,8.244796078527837e-06,0.0014886795066717036,0.027678796276090836,0.004060737883323124
878,3.617203126518129e-05,0.0036190898157940107,0.06834012089424668,0.0060143188529692
879,7.327194331957969e-05,0.0047025535904970635,0.06388524408253193,0.00855990323073684
880,7.160097395383039e-05,0.004999175163628179,0.0485171778528275,0.008461735871192743
881,5.4173236263841036e-05,0.004627753709790334,0.05745382165654256,0.007360247024648034
882,5.117914379879227e-05,0.00452013272163983,0.061564508532641504,0.007153960008190695
883,5.3210334215856156e-05,0.004743358503163166,0.06456457500420543,0.007294541398597725
884,7.772694326313545e-05,0.0047613526982770915,0.06849338689140949,0.008816288519730675
885,7.4715429508314676e-06,0.0017271562045239408,0.018841052788600574,0.0038656287847726296
886,6.796826421455998e-05,0.004244558399623592,0.06903309632292198,0.008244286762028557
887,8.406330809759174e-06,0.001818266732490656,0.02489737123136339,0.004100324574898692
888,3.563647997759869e-05,0.003679819711993132,0.056479347833814586,0.005969629802391289
889,4.644574892652187e-05,0.0033410815588419277,0.05417573102890039,0.006815111805870943
890,6.794461088229486e-05,0.004455315337589945,0.07259235394746888,0.008242852108481268
891,3.870266989041557e-05,0.004138643579160104,0.06017369498081848,0.006221146991545474
892,5.3895102741623604e-05,0.005007733512223795,0.059062753544283586,0.007341328404425401
893,8.73430043913214e-06,0.0017419570662889894,0.027453673785189283,0.004179545534895394
894,7.90141932419609e-06,0.001468540412745492,0.025866137278657962,0.003975278436586808
895,7.990399800389407e-06,0.001739346373727004,0.02677301242510074,0.00399759922963503
896,9.05306406739847e-06,0.0016808754105051566,0.044691049406724956,0.004255129626086239
897,7.843785221519502e-06,0.0013201598281366875,0.027962969563666645,0.003960753772079103
898,4.8664495138874244e-05,0.004087941126674043,0.09796925536970197,0.006975994204332002
899,3.838372596146801e-05,0.004430466698883151,0.03845301429831194,0.006195460108940052
900,7.063054188723409e-05,0.004389404137287871,0.058032441315809535,0.008404197872922424
901,3.923047328542001e-05,0.003814539036517205,0.05482448675665408,0.0062634234477176795
902,3.748496531071934e-05,0.003929074077484533,0.05609826522403738,0.006122496656652326
903,6.893290392255939e-05,0.004723468755781455,0.06634265153550434,0.008302584171362483
904,5.581680084284967e-05,0.004666809538692317,0.05377566324476435,0.007471064237633678
905,6.6674893883727675e-06,0.0013199972104062539,0.024913284720497586,0.003651709021368676
906,6.040115969297839e-05,0.004054463795401843,0.057650016086469025,0.00777181830030643
907,7.323138354736482e-06,0.001431492015886136,0.02800131609651214,0.0038270454281955912
908,7.854469991464385e-05,0.005493052058552169,0.05699298468792846,0.00886254477645347
909,7.229550535185631e-05,0.005647149615213944,0.05252148842288967,0.008502676364054796
910,7.388151333892427e-05,0.004563048537661351,0.05886378014525917,0.008595435610771779
911,5.5418522557300225e-06,0.0012910655994737281,0.023896388390371948,0.003329219805218614
912,6.373414667014572e-05,0.005234003457980994,0.055898364523364386,0.00798336687558232
913,7.121989907085961e-05,0.005466162920593408,0.05225452046055601,0.008439188294549394
914,7.502372881648256e-05,0.005099713353214483,0.07926229337128063,0.00866162391335957
915,6.060390620312722e-06,0.001430256065670056,0.0208426740450214,0.0034814912380509147
916,7.985881503585172e-05,0.005882400456879825,0.049942295254585156,0.008936375945306396
917,5.840791147757059e-05,0.004591161856722586,0.059792918437665765,0.00764250688436524
918,7.061062840832915e-05,0.00437700674524247,0.06644865731499827,0.008403013055346804
919,7.655553812262863e-06,0.0015166712432985788,0.035176301462389974,0.003912941045367995
921,4.999443020289161e-05,0.0044871162456518255,0.056461477225806966,0.007070673956766144
922,5.3634182951621905e-05,0.0047935178110599325,0.04492949815746461,0.007323536232696698
923,6.698500164708981e-05,0.005526087383539134,0.05940656143557521,0.00818443655037347
924,7.465563155513661e-05,0.004994331387414479,0.06013930650314914,0.008640349041279282
925,6.70156219358786e-05,0.005743666700142027,0.04946505262878542,0.008186306977867238
926,6.878166871847138e-05,0.005678509413503819,0.06219480917186748,0.008293471451597985
927,5.087969315312087e-05,0.004586609090249579,0.04762550175281177,0.007133000291120168
928,3.580149482671131e-05,0.0034808038492743793,0.06199742159395605,0.0059834350357224515
929,6.478641415973096e-05,0.005252363826935607,0.05323900564150119,0.008049000817476067
930,8.352510534202349e-05,0.0045901761269159,0.07098883586483762,0.00913920704120563
931,5.0284235593307065e-05,0.004578926045561785,0.0549104550452455,0.007091137820780706
932,8.504347119460191e-05,0.005704460857926126,0.059279968661159366,0.009221901712477809
933,3.781027302629886e-05,0.0036128690165349343,0.05213348971596954,0.006149005856746166
934,7.8075534006467e-05,0.00578286766071688,0.06718980210980563,0.008836036102600893
935,7.344199558489225e-05,0.004875943356910146,0.050126636358820864,0.008569830545867975
936,8.030910483978866e-06,0.001990771920918013,0.015166317975658039,0.0040077201708649205
937,7.349472463574376e-05,0.0041535899877865445,0.06895302384026536,0.008572906428729002
938,9.022464913224688e-05,0.005449413404484059,0.06387882418134527,0.009498665650092443
939,5.487624733823712e-05,0.0043157218852410365,0.05613939997040385,0.007407850385789181
940,6.3085033165577e-05,0.005229495521450933,0.06672728430476949,0.007942608712858542
941,5.083965808151447e-05,0.004195178851758548,0.05907226358058093,0.007130193411227644
942,5.0887816574097906e-05,0.004081791761200427,0.06013168500420618,0.007133569693645496
943,3.516903409752761e-05,0.00393505949505909,0.05651225097620838,0.005930348564589363
944,7.899238118195264e-05,0.005848113913420362,0.05443742315922395,0.008887765814981387
945,6.915251568310722e-05,0.005236175348454127,0.06267960752150792,0.008315799160820732
946,7.057316766108794e-05,0.005195921143093281,0.058377616600647886,0.008400783752786847
947,5.3348536242669137e-05,0.0047085145354307575,0.05435594954494061,0.007304008231284291
948,4.9536766549283746e-05,0.004119585352427829,0.05048296242380079,0.007038236039611292
949,6.150175870383738e-05,0.005130106308122723,0.0624910216983231,0.00784230570073858
950,6.267721977839412e-05,0.0043898885653879515,0.0664590075724929,0.007916894579214346
951,6.0691367819467394e-05,0.005067005633483892,0.054827902349557034,0.007790466469953324
952,5.191364338751806e-05,0.003972905498074513,0.044765651266710726,0.007205112309153658
953,6.206817236403491e-05,0.005050917028209451,0.058747470972036295,0.00787833563413203
954,7.463486336199429e-05,0.005392201510031896,0.06386307913985723,0.008639147143207678
955,6.237833833860841e-05,0.00537014786361949,0.05429291199075337,0.007897995843162225
956,8.65373320475797e-05,0.005940381325019123,0.053279044035534184,0.009302544385681748
957,8.290873148997151e-05,0.004933302648134581,0.05097067726170135,0.00910542319115211
958,5.88129562501686e-05,0.004651409819647328,0.050587037649330924,0.007668960571692107
959,4.927631034229556e-05,0.004505548281741052,0.0583402590851545,0.007019708707795164
960,4.849858626282152e-05,0.0037974157601763786,0.06525686237007822,0.006964092637438211
961,4.299682597705535e-05,0.003908973596208489,0.06834769105775651,0.006557196502855066
962,7.082523256222211e-05,0.004835532090514371,0.053851567102513265,0.008415772844024585
963,6.0837942852861046e-05,0.004700672513844356,0.05531986883277662,0.007799868130478901
964,7.918579840784306e-06,0.001689851992768091,0.02402464105700578,0.003979592904000155
965,7.850299497577655e-05,0.0051529498998486795,0.05892117661856755,0.00886019158798363
966,5.346972227782862e-05,0.004288299348058539,0.05397765529150722,0.007312299383766239
967,5.794371693413539e-05,0.0043471175177527775,0.066257908445015,0.007612077044679399
968,6.887723852724251e-05,0.004086965509844665,0.0672464689955996,0.008299231200975296
969,5.393884247803082e-05,0.00498220251138503,0.05758341814468615,0.007344306807182713
970,7.304004649225847e-05,0.004692951314786935,0.05845963869225024,0.008546346967696657
971,3.9709724774783384e-05,0.004386035376517037,0.05613604514921988,0.006301565263867618
972,2.965151326561914e-05,0.002743638420917329,0.050243588278553464,0.006287714292238886
973,8.481439940492098e-05,0.004977804905879071,0.0742333549265135,0.009209473351116224
974,6.569767168681372e-05,0.004383546596138392,0.0540437788426118,0.00810541002582924
975,3.682978139041707e-05,0.00419308017507012,0.05102825094653379,0.0060687545172314235
976,7.458837854531314e-06,0.0018405123005718646,0.018732519903387645,0.0038623407033899007
977,6.488768038578451e-05,0.004027166904398393,0.06180903397891546,0.008055288969725674
978,9.006641812857057e-06,0.0018967490614946764,0.02171537760052497,0.004244205888704485
979,7.302631329233e-05,0.0054387370409258624,0.06923809775987522,0.008545543475539132
980,4.090761027214788e-05,0.004067015196100372,0.05661046470118958,0.006395905742906766
981,7.569659491383719e-05,0.006028646165789936,0.07270731745065273,0.008700379009780913
982,5.50280063172696e-05,0.00424532031936294,0.06777635938989568,0.007418086432313179
983,7.799682599097938e-05,0.005137605279456077,0.06256323276697229,0.008831581171623719
984,7.04192593573023e-05,0.00513471483047094,0.06358616560655417,0.008391618399170776
985,5.409005086360987e-05,0.0043252749518344884,0.061615163475147394,0.007354593861227791
986,7.657849908292759e-06,0.0019047396006361573,0.022727822731366424,0.003913527796833095
987,6.37085852820378e-05,0.004864193236517156,0.05560008527811444,0.007981765799748654
988,5.887043979530016e-05,0.005073582727319233,0.05215764388384292,0.007672707461861136
989,5.4487882682895216e-05,0.004396129690145046,0.05218186578847339,0.007381590796223731
990,4.9916516782432475e-05,0.004006905958291831,0.04507922464075387,0.0070651621908086526
991,4.5338633671925586e-05,0.004598405968168749,0.05788458761971338,0.006733396889529475
992,6.846587917918387e-05,0.005152582654216646,0.06693441658324506,0.008274411107697222
993,5.23295146285586e-05,0.004791270289443748,0.04976765031610031,0.0072339141983132444
994,4.228582274265269e-05,0.004378345966589982,0.04679726450323152,0.006502755011735598
995,6.967500638500143e-05,0.004934894178420064,0.05672522657510637,0.008347155586485775
996,6.784216590119785e-05,0.0049237536854595835,0.057846037426811325,0.00823663559356592
997,8.007572147210631e-06,0.002001798435491784,0.022412363879577048,0.004001892589065981
998,8.362085005864805e-06,0.0018512868832292586,0.01971623653758897,0.0040895195331150285
999,4.76936952292463e-05,0.004527090609084204,0.05220175161656915,0.006906062208613946
1000,5.6218612615193894e-05,0.0049490552460156245,0.04576794872986856,0.0074979072156964805
1001,6.053120913190326e-05,0.004002091442182715,0.06587247382182171,0.007780180533374719
1002,5.319386166251061e-05,0.004420574984164434,0.056767217280386306,0.007293412209830883
1003,5.2391023079741806e-05,0.003773516852758564,0.06174605094362828,0.007238164344620888
1004,4.0263354783672585e-05,0.003909527981474257,0.054549014082120095,0.006345341187333599
1005,7.200743079705841e-06,0.0014719599359670087,0.02070990710922894,0.00379492900584603
1006,4.7378025542033704e-05,0.004308665735422678,0.057056315417237435,0.00688316973072969
1007,6.0143284908452214e-05,0.004738858804240149,0.06271048057131956,0.007755210178225441
1008,7.038586910172117e-05,0.005344262933749401,0.0577484565856361,0.008389628662921892
1009,4.912076503810253e-05,0.005257084842129622,0.04358120620388206,0.00700862076575
1010,7.427459565783256e-05,0.0059623157777325495,0.06945755803486087,0.0086182710364569
1011,7.2065711122387e-05,0.0054044517170765555,0.060680562294340934,0.008489152556197024
1012,5.5473304478431904e-05,0.004855952753907502,0.0559954235253326,0.00744804031127864
1013,6.26620258777374e-05,0.005111908555488571,0.05832447760926329,0.007915934933899922
1014,5.119451732042841e-05,0.0038644618454089074,0.06573838337548477,0.007155034403860549
1015,5.1845665314485635e-05,0.004214055517082334,0.04478178567219815,0.007200393413868813
1016,5.7077811951299336e-05,0.00514740724502708,0.051988027056300457,0.007554985900138988
1017,6.980855882910392e-05,0.004579006306193421,0.06715267658897872,0.00835515163411791
1018,4.4171347502294085e-05,0.003944683013471543,0.062420235615356034,0.006646152834707737
1019,4.968492391255031e-05,0.004755687530884442,0.04957930286498802,0.007048753358754288
1020,4.32848282551111e-05,0.004028468378750075,0.04985107667290034,0.00657912062931749
1021,6.065379336053907e-05,0.004240371990417227,0.0637724952201939,0.007788054529889912
1022,6.080965652908604e-05,0.004651586867055209,0.05871300888526962,0.007798054663125007
1023,6.748605491169678e-05,0.005784673331431253,0.049035799102002134,0.00821498964769259
1024,5.5127965576890284e-05,0.004554882639905821,0.0609448018735117,0.007424820912108903
1025,6.445272348969041e-05,0.0042964265027231816,0.05495320221759492,0.008028245355598554
1026,5.6338632695120384e-05,0.00400287846592047,0.05935288150929215,0.007505906520542337
1027,5.8499207105200546e-05,0.004758446122793337,0.054280252107676175,0.007648477437058958
1028,6.860356056479741e-06,0.0014722448602438663,0.030752921321808766,0.0037041479604572056
1029,5.2141078107026964e-05,0.0049771935664646265,0.04302804896939638,0.007220877931874101
1030,4.5460839029092583e-05,0.00430475129979478,0.058299343114222246,0.006742465352457677
1031,5.83977387696062e-05,0.005310866571385243,0.04922752741702752,0.007641841320624583
1032,7.293047258826713e-05,0.005201449745218091,0.05624318409870899,0.008539933992032173
1033,6.245768730470335e-05,0.004663885964430248,0.07243630902143572,0.00790301760751567
1034,6.003440180161654e-05,0.004901674645859138,0.06570185256296357,0.007748187000945199
1035,7.9708044121615e-05,0.005254901258766389,0.08088868849164577,0.008927936162496571
1036,6.22561100840018e-05,0.0046290325297138534,0.06301526338503582,0.00789025412036908
1037,7.827807662694879e-06,0.0014248850624863408,0.029337207534022913,0.003956717746490083
1038,6.089981514365473e-05,0.004690543025604099,0.053009344488360366,0.007803833362114695
1039,2.950339715704217e-05,0.003690240088378473,0.03608687662232457,0.005431702970251782
1040,5.046403328950717e-05,0.004556163335982181,0.051731727093316415,0.00710380414211335
1041,6.39518402601761e-05,0.005373096522901896,0.055953947079195654,0.00799698944979771
1042,5.0607376674166534e-05,0.004902444268090229,0.05216726703431229,0.007113886186478247
1043,5.3695163560103456e-05,0.004501336537515835,0.058084226657875604,0.007327698380808456
1044,8.600356309879764e-06,0.0015450567965835916,0.025392227937397586,0.0041473741837166605
1045,5.793214906616412e-05,0.00502576479899446,0.06183484416867935,0.007611317170251393
1046,6.526429392082761e-05,0.005200282133940743,0.05210457547953218,0.008078631933738973
1047,3.0089625437397713e-05,0.002480717662722066,0.05353986756453048,0.006333995625448171
1048,4.67700406414536e-05,0.004322140655023571,0.04396806269966769,0.006838862525409696
1049,6.470265395974452e-05,0.005533290528147959,0.05034799721566752,0.008043795991927184
1050,4.098949745490395e-05,0.003984075000868992,0.045307459747999435,0.006402304073917717
1051,3.2159365146385074e-05,0.0036879367010902663,0.037588996265125296,0.0056709227773251115
1052,6.18658331283505e-05,0.004650082502749,0.06258344934847293,0.007865483655081228
1053,6.66440044753368e-05,0.005449080263964176,0.055249792179804746,0.008163577921189727
1054,4.789432751548744e-05,0.004779619256876154,0.05307907464070949,0.006920572773657325
1055,5.101995736096076e-05,0.004025948798070172,0.06477582647838709,0.007142825586626083
1056,8.49355610001125e-05,0.005576567580903011,0.05423116064852218,0.00921604909926764
1057,4.455568547958147e-05,0.003990614687655415,0.04485897070875655,0.006675004530304168
1058,6.717432456410914e-05,0.005401446775384649,0.04236220616747133,0.008195994421917858
1059,4.473825352585748e-05,0.004712913286162698,0.05148189911582923,0.006688666049808221
1060,4.564975348359462e-05,0.0036309281576109424,0.046195049986933245,0.006756460129653271
1061,7.808178310962724e-06,0.0017461000968884259,0.02544156118301758,0.003951753613514546
1062,6.462901882284599e-05,0.005448378383545402,0.060787416327003685,0.008039217550411575
1063,2.3920431035901194e-05,0.002805655645443913,0.04265982646629052,0.005647469171927188
1064,4.368895517844146e-05,0.0038816111387681273,0.0534390857743432,0.00660976211209157
1065,4.8685302518672357e-05,0.004611710285414082,0.04671572060700635,0.006977485400821119
1066,5.422152604265918e-05,0.005367308913587481,0.04866191407557097,0.0073635267394543125
1067,4.545121500635074e-05,0.004420007680669048,0.05583940961881817,0.006741751627459336
1068,7.332213225510609e-05,0.005894420454581677,0.052555112590134456,0.008562834358733406
1069,5.500538395534761e-05,0.004330447358373815,0.05993827883413794,0.007416561464408377
1070,5.4001863818572296e-05,0.00453968677413287,0.05286630824732841,0.007348596044046235
1071,6.458535806348683e-05,0.004565593474405133,0.05584551014711847,0.008036501606015307
1072,6.109298481007074e-05,0.00549220084584992,0.05039357442852932,0.00781620015161269
1073,6.509983366686993e-05,0.0053284772592987984,0.06117757914956812,0.008068446793954189
1074,6.574589729928776e-05,0.005556547260427077,0.05803135493393574,0.00810838438280322
1075,4.746483294754897e-05,0.004743510573282217,0.05960745185346994,0.006889472617519321
1076,6.438828003035919e-05,0.004874220299796455,0.05381290852300591,0.008024230806149491
1077,5.150969747895104e-05,0.005012638818462925,0.053374084415360734,0.007177025670774115
1078,5.005891762126646e-05,0.004301077651935085,0.04725075071227547,0.007075232690255919
1079,4.337537413972745e-05,0.003795178403959382,0.049015443502750444,0.006585998340398139
1080,4.8974278043269034e-05,0.004749608760141571,0.053037456827052964,0.0069981624761982116
1081,5.025822186165918e-05,0.004317426884048738,0.05514917996434354,0.007089303341066652
1082,3.4658038862519837e-05,0.0037457148960260995,0.05776154302860537,0.0058871078521222624
1083,4.783001560935296e-05,0.004801972093166294,0.05473407890275728,0.006915924783378768
1084,5.422055288054809e-05,0.0041675507553856975,0.060043857862769334,0.007363460659265297
1085,5.306805854204137e-05,0.004622567853924871,0.048122518146703125,0.0072847826695132765
1086,4.852266472758956e-05,0.004394854186449199,0.054762154264359264,0.006965821181137877
1087,6.78083879212292e-05,0.00402559908869035,0.05711133159163506,0.008234584866356564
1088,5.4316735344880324e-05,0.005161635815062455,0.05719562759910041,0.007369988829359238
1089,5.213769214608478e-05,0.004426336325142434,0.049185187928488514,0.007220643471747119
1090,5.500406610493634e-05,0.005172111778803763,0.04289894125009597,0.007416472618768053
1091,4.429399123746748e-05,0.00439717975701,0.045680433192927916,0.00665537311031223
1092,7.745572290996738e-06,0.0019865162064306545,0.014342953759749026,0.003935879137117062
1093,4.8963640972412346e-05,0.00417480423936672,0.05718419190975288,0.006997402444651304
1094,6.51335165089294e-05,0.004974023291999077,0.05252029288694049,0.008070533842871168
1095,7.641774475494791e-05,0.004536898202839534,0.05360174225012271,0.008741724358211446
1096,7.136876551566705e-05,0.004906974209856218,0.06949211285533763,0.008448003640841216
1097,7.268092379918765e-05,0.004787877113199535,0.0796758283191239,0.008525310774346411
1098,3.630734097683256e-05,0.003957002257999998,0.05199668216142239,0.006025557316699622
1099,3.5808032365316224e-05,0.004318464799800822,0.04582660849181508,0.005983981313917684
1100,4.3433714997376364e-05,0.004144762665776074,0.04906682812396479,0.006590426010310415
1101,4.683441678503763e-05,0.0046839792867043,0.047631341292662555,0.0068435675480729655
1102,5.870724437350593e-05,0.004313193135367096,0.05242178581334578,0.007662065281208799
1103,3.45623832963375e-05,0.0036876171453005973,0.04729905899396325,0.005878978082654944
1104,7.019977151824868e-05,0.0051623595473052055,0.06612575518422847,0.008378530391318537
1105,5.578800281433307e-05,0.0057212571812657285,0.05892827610652418,0.007469136684673301
1106,8.257781792468662e-06,0.0014708526804332106,0.025498614797317392,0.004063934495650383
1107,4.205500295403433e-05,0.004031320239480088,0.06710180186474712,0.0064849828800108604
1108,5.4990175771925986e-05,0.004342465943364401,0.06001172346652517,0.007415536108193754
1109,6.518509836074272e-05,0.0050886150354344335,0.0609631620910529,0.0080737289006222
1110,7.855291569846913e-05,0.005643308932853157,0.06860359840287078,0.00886300827588852
1111,6.525643258692569e-05,0.004402430026397112,0.05952382161101877,0.008078145368023834
1112,4.9653462599008586e-05,0.004356723996503729,0.057104695256434024,0.007046521311896255
1113,6.259604575257345e-05,0.00489356074753249,0.06120216376358212,0.007911766285259733
1114,6.452257506933805e-05,0.004994464077172968,0.06381759429709977,0.008032594541574803
1115,3.258581362942821e-05,0.0031465913164570643,0.05828239089475362,0.005708398517047306
1116,6.173547645651964e-05,0.005283944813438034,0.04983091742384227,0.00785719265746481
1117,6.733056119545264e-05,0.004796918083651919,0.047159675013684454,0.00820552016604994
1118,4.1745826593514306e-05,0.0041712703776554845,0.043157513879839904,0.006461101035699249
1119,4.3990067405864375e-05,0.0034832413609003528,0.046101473303147955,0.006632500840999874
1120,6.906703850342066e-05,0.005271425588248105,0.04813450265653607,0.00831065812697285
1121,6.549511356268926e-05,0.003973965420052179,0.07493041797706357,0.008092905137383515
1122,6.124997807142349e-05,0.005256247336771675,0.05438076828647441,0.007826236520283749
1123,4.500427940249178e-05,0.0040737402128951045,0.054976790736881664,0.006708522892745557
1124,4.468430659320461e-05,0.0036823489412514065,0.06224151830442004,0.006684632121007426
1125,6.800318834499216e-05,0.004570954161668044,0.0520242213972435,0.00824640457078063
1126,5.35713239726827e-05,0.005245153995526095,0.0569557860090919,0.007319243401655811
1127,7.1835472811554574e-06,0.0013376155511616802,0.026021350228503083,0.003790395040402871
1128,6.251681771680267e-05,0.0045249372808181115,0.048832129139265795,0.007906757724680977
1129,7.324811439820123e-05,0.0052064460318960335,0.05870186372839936,0.008558511225569566
1130,9.324652702834254e-06,0.0016374504892340375,0.031094922130988016,0.004318484156005246
1131,6.55526394673171e-05,0.003932850853228596,0.058619780860802106,0.008096458452145384
1132,8.000552307148488e-06,0.0014409657149416493,0.0314749987658729,0.004000138074404044
1133,8.482378750164332e-06,0.0018945977168058955,0.039144570371051485,0.004118829627494732
1134,6.268232883390673e-05,0.004295678505981884,0.05616696017681305,0.007917217240540153
1135,4.287911746799853e-05,0.004267410873971939,0.06220607853086069,0.006548214830623554
1136,4.8604131435846e-05,0.0043918220554115,0.059858199075221274,0.006971666331361957
1137,5.682251360993281e-05,0.004803012355552856,0.06006525722015588,0.007538070947525793
1138,4.096902878995978e-05,0.0038966553626363395,0.05795132208218279,0.006400705335348547
1139,4.824451020396488e-05,0.004232576338361374,0.05438961724587488,0.0069458268193185145
1140,4.8172125914985245e-05,0.004294733462181343,0.056138908842763735,0.0069406142318230585
1141,4.5548939907501e-05,0.0038078395965994816,0.044958759855004526,0.006748995473957645
1142,5.314205958166396e-05,0.004838810088855175,0.05077332236811172,0.007289860052268734
1143,5.043733628994628e-05,0.003975958424713286,0.07300645621200308,0.007101924829927864
1144,2.822041692273998e-05,0.0027278722042469476,0.05797239855387304,0.0061341032403810355
1145,7.321405301042144e-06,0.0017310753353129778,0.02212424971359904,0.0038265925576267032
1146,5.294032200402221e-05,0.003823783362465373,0.06484069759484778,0.007276010033254609
1147,8.497846416889054e-05,0.00450074832229344,0.07164681618979163,0.009218376438879563
1148,5.56202864750686e-05,0.004875564221567778,0.053345211488479816,0.007457900942964312
1149,6.498877322719822e-05,0.004533492489140343,0.06545986950358545,0.008061561463339318
1150,5.2048152034679903e-05,0.0049024937207645305,0.04929083044979787,0.00721444052125176
1151,5.2051030853380465e-05,0.004717942046511178,0.06198192288913784,0.007214640036299796
1152,6.0920610567909226e-05,0.004085487849090836,0.06586374933012251,0.007805165633598598
1153,7.3111523968559015e-06,0.0016634608483474523,0.024084059576190055,0.003823912236664392
1154,4.741026824393987e-05,0.0036951926763146513,0.06707581567241316,0.006885511472936462
1155,7.482619339000599e-05,0.004498514105453903,0.0679612956437845,0.008650213488117248
1156,6.44842639311062e-05,0.004854850074577244,0.05729657248175002,0.008030209457486507
1157,4.44280978656593e-05,0.004326467660774449,0.04336372447611703,0.006665440560507552
1158,5.413878464179721e-05,0.004732684048575747,0.05185802318920918,0.007357906267532682
1159,6.75967369999554e-05,0.00502638498281419,0.06122608181178446,0.008221723481117233
1160,4.05121012805075e-05,0.004107351294842804,0.053418895690497514,0.006364911726057733
1161,6.601662383142186e-05,0.004199054777258105,0.06576541715408024,0.008125061466316497
1162,9.200838741979617e-06,0.0017888228134814144,0.07521492549649622,0.004289717646181274
1163,7.951551970739757e-05,0.0057692118651555034,0.06540517495798115,0.008917147509568136
1164,7.306807077562157e-05,0.004506995312400036,0.06584964658177528,0.008547986357945387
1165,5.428826413069493e-05,0.003477225813870038,0.06352712718009296,0.007368057011905825
1166,7.810315508006628e-05,0.005626237019782095,0.053318546021419166,0.00883759894315564
1167,4.290421237268871e-05,0.0037885127455742464,0.06870828677589902,0.00655013071416812
1168,4.394672300335732e-05,0.004401996905644945,0.05251595691960833,0.0066292324595956815
1169,5.315590077922819e-05,0.00422319004788108,0.062095872021561194,0.007290809336365045
1170,8.25056964028119e-06,0.0014007659923385642,0.03240751796109286,0.004062159435640369
1171,7.5947851532299e-06,0.0016207999223191794,0.02974745142176733,0.0038973799284211124
1172,3.843015234583486e-05,0.004273293201637758,0.04960741804691704,0.006199205783472158
1173,5.623062909696524e-05,0.004741181020415715,0.05071372882922853,0.007498708495265345
1174,6.685157580072134e-05,0.004923872368277898,0.05559596735023309,0.008176281294128823
1175,5.1065903408892114e-05,0.004099201452456094,0.06016630347956031,0.0071460411004199715
1176,6.988546102045169e-05,0.005701247443134485,0.053392915374734784,0.008359752449711141
1177,3.65658305198114e-05,0.003538612927256499,0.06136920434363358,0.006046968705046454
1178,6.4019187643792e-05,0.00537035366157053,0.06148626967877191,0.008001199137866238
1179,8.312451176430368e-05,0.005651053056284695,0.05103351027539327,0.00911726448910544
1180,4.400702027069367e-05,0.0043723269184374365,0.05312794740906271,0.0066337787324189145
1181,6.343470470077759e-05,0.005076640569678356,0.05726055595896731,0.00796459068005235
1182,7.42033977922083e-05,0.005326200535897614,0.06015379318577252,0.008614139411003724
1183,7.260966117551506e-05,0.005188114710939902,0.05299770972425488,0.008521130275703722
1184,5.740247258262402e-05,0.004644471660477931,0.05315150863756146,0.00757644194741988
1185,7.148743731349043e-05,0.004362839367686814,0.06133642450314003,0.00845502438278505
1186,4.9425589065801585e-05,0.0034374946575302457,0.059777159881773345,0.007030333496058422
1187,3.663387263756853e-05,0.004255901541276674,0.04621255439653338,0.006052592224623126
1188,3.6915927749871455e-05,0.003971762557374672,0.04958610872810887,0.006075847903780276
1189,3.521409380808319e-05,0.003789501720786844,0.04931104796838959,0.0059341464262421765
1190,5.411041609165612e-05,0.004077099124162512,0.051969391461759606,0.007355978255246262
1191,6.115482917511608e-05,0.004537303107419657,0.06663397614490307,0.007820155316559602
1192,5.450727608062196e-05,0.0045899623289421985,0.0592295908535051,0.007382904312032074
1193,4.770486585781e-05,0.004499008666040199,0.048939219235012765,0.006906870916544588
1194,4.65249218176387e-05,0.004727746427596503,0.04612851076922242,0.006820917960043102
1195,6.332069068022792e-05,0.004616134641310701,0.07048825884479326,0.00795742990419816
1196,6.387502238144148e-05,0.004782559817164213,0.07789303279324855,0.007992185081780874
1197,6.588371799617898e-05,0.00472598282024342,0.05940899911345576,0.008116878587004887
1198,5.4961406378262825e-05,0.004571048824104536,0.06393940591629654,0.007413596049034685
1199,5.5140529543127234e-05,0.00412619511819865,0.05472692152718306,0.007425666942647445
1200,7.884306556309229e-05,0.004911559160220548,0.06763540436615312,0.00887936177678844
1201,6.847284521551116e-05,0.005089106851800689,0.05697453471783187,0.008274832035486313
1202,6.104852745057901e-05,0.004956240965086039,0.05648222942999537,0.007813355709973702
1203,4.414151413806479e-05,0.004607658533559778,0.058753876466221655,0.006643908047080757
1204,5.3164983900033835e-05,0.004687370425426386,0.059129184187784456,0.0072914322255667645
1205,5.3074708763417206e-05,0.00486450574930833,0.05043417266822753,0.007285239101321031
1206,8.729569091628898e-05,0.005800972490211812,0.060999681988669785,0.009343216304693388
1207,4.595651424546759e-05,0.004352520562565647,0.057125042160011574,0.006779123412762684
1208,7.24972926334563e-05,0.005097644833408354,0.057263549472112485,0.008514534199441297
1209,5.291650885996422e-05,0.004731112906712126,0.054011944104637166,0.007274373434184131
1210,4.697939485844242e-05,0.0042359993094944325,0.04814723560779055,0.006854151651257947
1211,4.845526580176972e-05,0.004535112318852589,0.0399944988921761,0.006960981669403337
1212,5.369924023337346e-05,0.0048154045702096014,0.0679426329444972,0.007327976544270121
1213,5.047090430558943e-05,0.0040301395856972,0.0659229399922645,0.007104287740906125
1214,6.689253168606969e-05,0.0051270656893554045,0.06829539763645998,0.008178785465218493
1215,8.057042297520828e-05,0.005963014578125021,0.05829150782873249,0.008976102883501692
1216,4.8019361460703005e-05,0.004704772189192126,0.04187749572060273,0.006929600382468154
1217,5.7149586895157626e-05,0.004358894317964585,0.06322822050818033,0.007559734578353768
1218,5.740858671219235e-05,0.0040852772654767595,0.0638775427110736,0.007576845432776875
1219,4.952785282088491e-05,0.004895577832583829,0.060816349306925144,0.007037602775156074
1220,8.48186960073862e-05,0.004952276526717362,0.04657393099897256,0.00920970661896378
1221,6.44497416023257e-05,0.004702400585899348,0.05930036507022529,0.008028059641178883
1222,5.208181998380939e-05,0.004953755116559888,0.05901390391213113,0.007216773516178025
1223,7.12731004558245e-05,0.005546247660776436,0.051718978844001395,0.008442339750082533
1224,6.665626119011312e-05,0.0048350279344960174,0.05638866697463074,0.008164328581709132
1225,5.4756019328367366e-05,0.004860982748106658,0.05726291019412466,0.007399731030812311
1226,7.980535065295288e-06,0.0016815892002410915,0.028013665572788813,0.00399513080268849
1227,9.500096874010807e-06,0.0018968342288721474,0.01781772388203146,0.0043589211679062765
1228,5.519212780844643e-05,0.004677188325694277,0.045637843541944,0.007429140448830266
1229,7.760556376153317e-05,0.005186845386430257,0.07913105527938935,0.008809402009304197
1230,7.405062530385055e-05,0.005356725007769645,0.052814367595848566,0.008605267299965193
1231,5.992756086164069e-05,0.004668474274220799,0.05755547863989202,0.007741289353953923
1232,5.6512954151759844e-05,0.004739777314292725,0.05695881775605485,0.007517509837157471
1233,7.206725289878709e-06,0.0014054002340087603,0.024425120115256802,0.003796505048035258
1234,8.194016850178103e-06,0.0017226295959095097,0.024814947400167937,0.004048213643121619
1235,7.609139384094611e-06,0.001575525757464583,0.029710372060665593,0.0039010612361496037
1236,8.125936725039377e-06,0.0017832546163400666,0.02510559290729084,0.004031361240335401
1237,5.17087541135207e-05,0.0045284337271173595,0.057909236817307475,0.0071908799262343495
1238,5.535532018139347e-05,0.004297130173626024,0.06689382345429928,0.007440115602690133
1239,5.579207529079019e-05,0.00483497369871574,0.04785538226154218,0.007469409299990854
1240,4.7576609600119895e-05,0.004332911785226488,0.0650631260224035,0.006897579981422443
1241,1.2048077629311501e-05,0.002098426712357604,0.03446095686720111,0.004908783480519671
1242,5.765836374062738e-05,0.004634257724082649,0.05451932272793747,0.007593310459913168
1243,4.5969285670194524e-05,0.004054873397649254,0.05454986074037094,0.006780065314596461
1244,8.001515959860291e-06,0.0020063088048467444,0.017601458945273245,0.004000378972012576
1245,4.5998685203856364e-05,0.003584410717455257,0.07093694669994832,0.006782233054374939
1246,4.079916147229314e-05,0.0037905278148076954,0.06381685470379761,0.0063874221304288945
1247,3.747200060291741e-05,0.0032147254903231053,0.04205375483361351,0.006705699122649362
1248,8.026941761159739e-06,0.0018256540213287043,0.0221337111465652,0.0040067297790491565
1249,6.468430585484494e-05,0.004957323669224155,0.05251775140746551,0.008042655398240322
1250,5.5419676241210516e-05,0.004182752245805073,0.0611292875677476,0.007444439283197221
1251,5.2104824018702496e-05,0.004709558351138215,0.06113739434005233,0.007218367129670103
1252,8.141486795414744e-06,0.0016798762557727089,0.018214264265301493,0.0040352166721044054
1253,7.929607742911644e-06,0.0017325358429152828,0.02513872120099395,0.003982363052990412
1254,5.674523551069144e-05,0.0043132758294256255,0.07402396186850091,0.007532943349759831
1255,6.435642304289275e-05,0.005031006298660098,0.050821577143628005,0.008022245511257589
1256,4.076954872531061e-05,0.003507221608128742,0.06529287520837102,0.00638510365814921
1257,6.8079149028625e-05,0.004393057737031213,0.05096042841775006,0.008251008970339582
1258,7.882315003650102e-05,0.0056422602221638555,0.0525001965089924,0.008878240255619362
1259,7.833238469290341e-05,0.005238031453284158,0.055354938359762684,0.008850558439607218
1260,8.778856800259162e-06,0.0018520318933888853,0.028681228537996723,0.004190192549336859
1261,8.580293212101548e-06,0.001628673968531427,0.026228314385287006,0.004142533816905169
1262,4.540912935378286e-05,0.003995192353324795,0.06244177507374005,0.0067386296347093045
1263,6.750984328230017e-05,0.003798524248606799,0.064308130395478,0.008216437383823947
1264,6.852667491315228e-05,0.005055583813310159,0.06363194008339157,0.008278084012206675
1265,5.9403253867413665e-06,0.0012290091263172055,0.020294574090642392,0.003446831990898695
1266,4.9976830607162006e-05,0.004127404752306913,0.04907693245924305,0.007069429298547476
1267,8.734679333496967e-06,0.0013459783035226745,0.029433966329457398,0.004179636188353456
1268,8.347020626179106e-06,0.0017451543180026867,0.020215910007371583,0.004085834217434413
1269,6.324006404007646e-05,0.004932469444248285,0.06176563910253985,0.00795236216731076
1270,6.879083862753005e-05,0.004341856711616263,0.07061571920645404,0.008294024272181124
1271,7.423749535759419e-05,0.005628690744804163,0.07096914872398785,0.008616118346308481
1272,8.116548769478996e-05,0.005764430449999274,0.04057898447171371,0.009009189069765904
1273,7.535446466515191e-05,0.004065174761934159,0.081817412165206,0.00868069494137143
1274,5.614039490234194e-05,0.00457333135118636,0.06600395958017735,0.007492689430527699
1275,7.9993843295243e-06,0.0015657098008370497,0.02637578878798044,0.003999846079419597
1276,7.039213522746449e-05,0.004262429032094297,0.0676707439592823,0.008390002099371845
1277,6.836435118791296e-05,0.00491205835776234,0.05832856500430683,0.008268273773159201
1278,7.303361699956551e-05,0.004770282568938299,0.061424154456656055,0.008545970804979677
1279,4.959098846360193e-05,0.0039446948947482975,0.053151807547080154,0.0070420869395088955
1280,3.662733621710888e-05,0.004092842124229892,0.04604229887334732,0.006052052231855619
1281,7.016432574805345e-05,0.004816030805629253,0.06804403758254374,0.00837641485052244
1282,4.483816024451987e-05,0.0038525483763461638,0.05586830684579791,0.006696130243993129
1283,8.120181347001645e-06,0.0015737650493421829,0.02273473767710209,0.004029933336173595
1284,7.077529756176008e-06,0.0013762522607827182,0.021891268475658286,0.0037623210272851345
1285,5.0281332390968945e-05,0.004066531045560066,0.07271079611339859,0.00709093311144369
1286,8.188749545202286e-05,0.004033259682490419,0.07055454216376367,0.00904917098147792
1287,6.801365738683113e-05,0.00401087503631683,0.07808032221754124,0.00824703931037257
1288,4.081964664250872e-05,0.003372713619646306,0.05436980681956351,0.006389025484571826
1289,6.926939225128725e-05,0.004922232100264314,0.06629684252735657,0.008322823574441952
1290,8.150189237037351e-05,0.004924716214630852,0.06018963948984557,0.00902783985072691
1291,7.676495798351646e-05,0.004811825871245822,0.05964059425325097,0.0087615613895878
1292,6.624571753321906e-06,0.001550196616038511,0.0209805461921313,0.003639937294328525
1293,7.079360798143807e-05,0.005940639156308163,0.06207419975337736,0.008413893746740406
1294,5.691506129712507e-05,0.004174450257583071,0.07435393114193323,0.007544207135088788
1295,6.161525158349319e-05,0.005131706565569357,0.045463804722953305,0.007849538303842645
1296,4.6007758266422466e-05,0.00430184860038812,0.05357861441078615,0.006782901906000268
1297,7.953624617436414e-05,0.005791686766682712,0.03997749487686253,0.008918309602966442
1298,6.352597590665681e-05,0.00469936323450879,0.052104984089156536,0.007970318431948413
1299,6.729738838469566e-05,0.004921732534599817,0.061804499569068305,0.008203498545419189
1300,3.3620219454175244e-05,0.0037353126400692226,0.05359554468531336,0.005798294529788477
1301,5.609714389550474e-05,0.00456543151535848,0.04629249906070576,0.007489802660651638
1302,6.798052067164231e-06,0.0012818416507993056,0.023089309057199595,0.003687289537631718
1303,6.6431370773919455e-06,0.0013765009899575646,0.022460553083736734,0.003645034177450699
1304,6.658009870016031e-05,0.004547181671893237,0.06633756652153155,0.008159662903586141
1305,8.86167214167272e-05,0.005301776805668222,0.04961423491007466,0.009413645490283042
1306,4.234061423395765e-05,0.0040958989200274845,0.057911076100104264,0.006506966592349866
1307,8.083210147805777e-06,0.0017042861817128615,0.026855294079114092,0.004020748723261798
1308,4.1244228037142e-05,0.003863931933688854,0.05446988363743577,0.006422166926913499
1309,4.188468790285904e-05,0.0037684029777767846,0.05126921250989014,0.0064718380621627495
1310,7.697825960034068e-05,0.005744586890477108,0.059384063862195635,0.008773725525701123
1311,4.427286289976663e-05,0.00421665507650045,0.0466728814283941,0.0066537856066878134
1312,9.123987581129804e-06,0.001752085437671814,0.026524766852454182,0.004271764876752877
1313,5.160654351864249e-05,0.00439575697084931,0.06846310754190643,0.0071837694505490456
1314,7.335617368725364e-06,0.0017173833282833582,0.021917085934306572,0.0038303047838847714
1315,5.213982545555961e-05,0.003533137333671626,0.04838954913056254,0.007220791193183707
1316,5.6488614049309804e-05,0.004798081239242014,0.05324381897244912,0.0075158907688516515
1317,7.860039019064673e-06,0.0015387413858628345,0.02431670274765125,0.003964855361564801
1318,7.926054678512315e-06,0.0017004468703875142,0.019448099023788575,0.00398147075300377
1319,7.997191069657446e-06,0.00135348921623911,0.028285279572578134,0.00399929770576219
1320,6.830140295398329e-05,0.004877248026748373,0.05790327678863094,0.008264466283673904
1321,4.44254935178127e-05,0.0037553327790070274,0.06868784219908619,0.006665245195625763
1322,9.773677064916542e-06,0.0016204923678491464,0.03733425396519561,0.00442123898130746
1323,6.819160923176171e-06,0.0015184982946850872,0.019072019060974107,0.0036930098627477466
1324,6.33107389578441e-05,0.004254481569231054,0.07224148207743997,0.007956804569539469
1325,6.201965608907841e-05,0.004943376287128984,0.04957779218035352,0.007875255938004687
1326,5.176142304359477e-05,0.004291909408011732,0.06185885426053872,0.007194541197574343
1327,7.540289734124376e-05,0.004979831669645592,0.07307660640022107,0.008683484170610508
1328,7.366839432314318e-06,0.0015088969852527724,0.03355107413669726,0.003838447454978171
1329,4.77520481187178e-05,0.0038376501788592687,0.04641041188375117,0.006910285675622813
1330,6.597493975554473e-06,0.0014920783030403222,0.024566557485083122,0.0036324905989016483
1331,6.44435320367469e-05,0.005089756430529817,0.04707056923625075,0.008027672890492374
1332,6.210309526564478e-05,0.004190511612411053,0.07258732410797952,0.007880551710739835
1333,7.10845477198366e-06,0.0017275845993290127,0.013413049058695012,0.00377053173225835
1334,5.664392708169483e-05,0.003896765495797018,0.05186785629724211,0.007526215986914975
1335,6.074087291191113e-05,0.0050439732044337,0.06245650171775141,0.007793643109092866
1336,8.37309733249908e-05,0.005138815268821727,0.07620439315025962,0.009150463011508748
1337,6.49110521995094e-05,0.004909420347085919,0.06178342676528681,0.008056739551425815
1338,6.873095340473103e-05,0.004907451637497124,0.06587238599455159,0.00829041334341844
1339,1.3071797459016149e-05,0.0017398400533238222,0.07152026779150991,0.004733792944777716
1340,4.0674958417089877e-05,0.004033986264026771,0.06421639065374496,0.006377692248540175
1341,4.842498868876143e-05,0.004345248363919859,0.06866001903840191,0.0069588065563544075
1342,3.326657740404677e-05,0.003343339871503018,0.06398989388658904,0.005767718561445822
1343,1.375270931205566e-05,0.001956443949865145,0.04385898384412065,0.0048555198595392505
1344,7.137375136619773e-05,0.003934185912008817,0.07176151077355897,0.008448298726145815
1345,5.118783391651844e-05,0.003941694501965654,0.051460915707755905,0.007154567346563868
1346,7.813001906136573e-06,0.0014108421992421456,0.024854183049825795,0.003952974046496255
1347,7.696956916475496e-06,0.0014443838620416542,0.029370281194357546,0.003923507847953282
1348,7.980541306079797e-05,0.005209557568851225,0.06140045923100457,0.008933387546770684
1349,7.983005588484034e-06,0.0017104400680899563,0.020938277410515127,0.003995749138392931
1350,5.817176964944301e-05,0.00431697517509857,0.056980718455053925,0.007627041998667804
1351,7.323089105563239e-06,0.0017460850766268703,0.016951306740089933,0.0038270325594546867
1352,5.8963318567764864e-05,0.004563492953890954,0.047703047356881356,0.007678757618766507
1353,6.820890415312713e-05,0.005319766478661708,0.06267186349243126,0.008258868212601932
1354,4.287408036854094e-05,0.003660022304882955,0.0730034773793764,0.00654783020309328
1355,6.897688488645655e-05,0.004718129436731281,0.050137918721674446,0.008305232380039475
1356,4.7676171315894924e-05,0.004467667314577656,0.07138122922903944,0.006904793357943066
1357,4.828609312877102e-05,0.004410939695010238,0.061408276283811514,0.006948819549302622
1358,4.126350642386405e-05,0.003540796914114358,0.04786290325895948,0.006423667676947788
