sample_index,mse,mae,max_absolute_error,relative_error
0,6.81028442007779e-05,0.004644398842352199,0.06374115198302732,0.008252444740849655
1,2.5793516429363217e-05,0.0028177569736333196,0.05003085456050815,0.005078731773717037
2,7.014840610545096e-05,0.00477950889937625,0.060080283995566974,0.008375464530726073
3,5.67433179866699e-05,0.004233862280956909,0.09518414869615865,0.007532816072802381
4,4.9165619496516213e-05,0.004843396210531493,0.04846495235550119,0.007011819984605693
5,6.57628702679607e-05,0.004407502355638526,0.053702495811715156,0.008109430946001098
6,7.514416302484804e-05,0.004616321554900583,0.052793153473237986,0.008668573298118147
7,5.440523333599728e-05,0.004425807630158319,0.05739135785438032,0.0073759903291691405
8,5.336213236212674e-05,0.0034957688638673967,0.05817404815640659,0.007304938902011877
9,5.51604389384836e-05,0.005104892232764229,0.04095852584601101,0.007427007401267578
10,8.288566275005826e-05,0.004843818945316476,0.07082778013665347,0.009104156344772286
11,5.904311511394307e-05,0.004679236529679272,0.058195517758190984,0.0076839517901885895
12,6.450340238260024e-05,0.004757763272840844,0.06482954670512675,0.008031401022399501
13,7.119047875666432e-05,0.005144832212223285,0.06334985925799863,0.0084374450372529
14,6.054400738007333e-05,0.004485693722570431,0.05851503800904745,0.007781002980340814
15,5.961537312093171e-05,0.0035171802304272194,0.05229214035900352,0.007721099217140738
16,5.5552695242733785e-05,0.004291024844417542,0.04876504951645089,0.007453368046912309
17,5.850586567319066e-05,0.005008050436956522,0.04742092207115434,0.007648912711829713
18,4.325231171362596e-05,0.003691038982442637,0.05639403276194699,0.006576648972966829
19,6.150030120114576e-05,0.0038098765430107837,0.06674723554444917,0.00784221277453918
20,6.752665725814625e-05,0.004802863474713642,0.06543906019941823,0.0082174605115051
21,4.105371536825372e-05,0.0038236238150739146,0.046483136954463114,0.00640731733007297
22,4.1358962688712384e-05,0.004075650363838647,0.04712473239513848,0.0064310934287034
23,6.525096318124796e-05,0.005321365892225839,0.05537729691823268,0.008077806829904216
24,4.824945522586675e-05,0.0037288354185090983,0.06537666757003269,0.006946182780914031
25,5.165980591001117e-05,0.004215810827016704,0.05863222313039218,0.007187475628481161
26,6.937015827722674e-05,0.0046984882624262194,0.06798308735025582,0.008328874970680375
27,6.438055970196582e-05,0.0049735657469756386,0.061694532730205864,0.008023749728273265
28,7.092813048938535e-05,0.0039603693246345216,0.0727685240656156,0.008421884022556038
29,6.97068832739594e-05,0.004339334930401322,0.06413096352462189,0.008349064814334516
30,5.424419814016566e-05,0.00508169095679624,0.0507251817126928,0.007365066064888014
31,6.110482299881507e-05,0.00427231857684445,0.06680318537158048,0.007816957400345407
32,5.8960894753586175e-05,0.004701662534948569,0.05828474548621432,0.007678599791211032
33,5.8762842825653044e-05,0.005051408711587956,0.05246589206213992,0.007665692586169403
34,6.662664814792405e-05,0.004237839618853361,0.05842688543432306,0.008162514817623511
35,3.918846492628217e-05,0.003564685752157324,0.06012544572026268,0.006260069083187651
36,4.395990505823142e-05,0.00386042359149293,0.045820530447818086,0.006630226621936167
37,6.860280944960403e-05,0.004043260008024259,0.06141715105554546,0.008282681295909157
38,4.691521669743789e-05,0.004738895113051925,0.053787386228628886,0.00684946835144433
39,7.183945141942295e-05,0.004559566224550393,0.06806444840197212,0.00847581567870742
40,4.3270894118267595e-05,0.0037149868405928375,0.07310851302390642,0.006578061577567314
41,3.949667946189761e-05,0.003811467527949881,0.047328938557404054,0.006284638371608771
42,5.7676836193375536e-05,0.0053446613621742755,0.05204745221167917,0.007594526726095237
43,4.9647637557464004e-05,0.003915234462714206,0.05680217721196268,0.007046107972310947
44,5.468518890134375e-05,0.00470765885232888,0.07224052733175601,0.007394943468434579
45,5.671172919741818e-05,0.004792941506064493,0.04416818751233356,0.007530719035883459
46,3.8586936398361763e-05,0.004356005722528578,0.03931939704024945,0.006211838407296292
47,2.989860728153813e-05,0.003035408128471537,0.05757144922509738,0.005467961894667695
48,4.0849045307855945e-05,0.003849843725549636,0.050545406602612086,0.006391325786396404
49,7.899697863282217e-05,0.005049192132456695,0.07183791451804389,0.008888024450507634
50,4.6614065659405875e-05,0.0044795995832915166,0.05395855593718446,0.006827449425620492
51,4.935050979022929e-05,0.004510266594076254,0.07270152886430614,0.007024991800011509
52,6.565093973397538e-05,0.0046546176653805464,0.06092721971818538,0.00810252674996971
53,4.8328395467999353e-05,0.004895701902864973,0.03858700851481889,0.006951862733685055
54,5.118076266003528e-05,0.005004513428799678,0.069383868289286,0.0071540731517111865
55,1.9669495147522123e-05,0.0024118330723723177,0.04022267396528978,0.004435030456211326
56,8.814222355925804e-05,0.005513596644064614,0.07550642880400016,0.009388409000424801
57,3.82724720004114e-05,0.003999868011714812,0.061929915532592084,0.0061864749252228445
58,6.971989950552404e-05,0.00452667010423426,0.06578093401475216,0.008349844280315837
59,5.72245974778024e-05,0.005230000887712134,0.041176818708594354,0.007564694143043853
60,5.935147191277626e-05,0.0038725192946433883,0.05491987765738049,0.007703990648538956
61,8.266750843425357e-05,0.004842708238053499,0.06134134335574637,0.009092167422251567
62,5.8134500031025344e-05,0.0046591270967764175,0.048752639383338306,0.007624598352111742
63,6.00979054902873e-05,0.0040248838321688615,0.06297196808126565,0.0077522838886541715
64,4.845652085190923e-05,0.004213631598607922,0.051367826295033225,0.006961071817752557
65,7.211998666936006e-05,0.004646015214587504,0.06394050111634941,0.008492348713363069
66,4.2873211170226204e-05,0.0035770535450099033,0.05205428489275998,0.0065477638297533145
67,6.740035692678493e-05,0.004410674853479781,0.048638981782708424,0.008209772038661262
68,5.656364382338488e-05,0.0036763102882572903,0.06478973606000171,0.007520880521812881
69,1.578035547483034e-05,0.0019010406541762285,0.04388317156789068,0.003972449555983083
70,5.029297742944271e-05,0.0050826160733901,0.05498080131447636,0.007091754185632932
71,5.085470859345125e-05,0.004886479428314747,0.04962489053892982,0.00713124874011914
72,4.06185791189427e-05,0.0038961545369017065,0.045382826562110345,0.006373270676735966
73,6.63792639829857e-05,0.005574877688751381,0.05935873189110463,0.008147347051831342
74,6.429636420842279e-05,0.0038960970398099226,0.07537082289065511,0.008018501369234918
75,5.9679837995599055e-05,0.004786792789510637,0.05475472760425926,0.007725272680986623
76,6.410000002046895e-05,0.004025431995586214,0.06828011020215796,0.008006247561777528
77,4.789630676929127e-05,0.004258056472038921,0.05164872599710679,0.006920715770011854
78,8.331259999027279e-05,0.005063985263422879,0.0731311058748032,0.009127573609140183
79,7.318050472021982e-05,0.005518938788043037,0.06606054691912489,0.008554560463297885
80,6.257610909502326e-05,0.004255306263901761,0.06491499271124379,0.007910506247707717
81,2.1478858069922364e-05,0.0032281853399586777,0.030315371472384278,0.004634528894064871
82,5.43605364099872e-05,0.005100616535276043,0.055029765441711564,0.007372959813398321
83,3.474020415749924e-05,0.003992339369098006,0.045416866723775984,0.005894082130196271
84,7.206174962412593e-05,0.005188820204627328,0.058960350715672405,0.008488919225915938
85,4.4174086396834776e-05,0.0039289317183301845,0.05622761307956092,0.006646358882639021
86,7.10141585619439e-05,0.005129099460782722,0.05076857038953364,0.008426989887376347
87,3.5162100310309206e-05,0.0030722121987821374,0.0828124114140607,0.0059297639337758685
88,3.164233439026562e-05,0.0030306363930802565,0.0586649525280194,0.005625151943749203
89,2.9471481660704583e-05,0.0035518069672018336,0.043966970289325946,0.005428764284872241
90,3.158809458602805e-05,0.003690879342549717,0.0356254420802295,0.005620328690212679
91,5.7817736107563324e-05,0.004529461061086143,0.04573646350929561,0.007603797479389026
92,4.944294879553245e-05,0.004243537598667705,0.04742508822098834,0.00703156801826817
93,6.724210917047521e-05,0.004412211377701977,0.07320796657041928,0.008200128606947257
94,6.906343216912357e-05,0.004700164853131062,0.048134821680482,0.00831044115370075
95,4.591398286031203e-05,0.004838082214866751,0.058321640851432655,0.006775985748237058
96,3.8599207859283104e-05,0.004256253556410633,0.0535460877452687,0.0062128260766967135
97,7.958778529919975e-05,0.005182555140852452,0.0637105190113223,0.008921198646998023
98,4.066591524281586e-05,0.003393598107027631,0.05109819192171505,0.006376983239966653
99,4.92078916176419e-05,0.004820290203369681,0.05758711891423651,0.007014833684246647
100,6.031264494584407e-05,0.004968707377404113,0.04379624804154947,0.0077661216154425216
101,4.529840248958521e-05,0.004879118399925206,0.04166818263667538,0.006730408790674226
102,6.49105616197037e-05,0.003623416753398667,0.0885113511890232,0.008056709106062048
103,4.619303219699171e-05,0.004231487578586563,0.06492260888982404,0.006796545607659179
104,3.910983671612934e-05,0.00364821602588504,0.06210125351134055,0.006253785790713421
105,6.925415002799006e-05,0.005605081465268588,0.0628495951740724,0.008321907835826457
106,6.022001577089129e-05,0.004641601365065451,0.056903624432890876,0.0077601556537798206
107,7.732906667083998e-05,0.004050296405321747,0.07552634279044046,0.008793694711032416
108,6.0162912562805965e-05,0.004234342854633823,0.07062619941508169,0.007756475524541112
109,2.576562143140851e-05,0.0035251590674774415,0.02875641779885818,0.005075984774544573
110,7.170844908559609e-05,0.004734622644225535,0.06311606041134965,0.008468084144928832
111,6.196461033700297e-05,0.005103767603923625,0.0593175503970782,0.00787176030739012
112,5.6727617898273055e-05,0.004480360298940992,0.05907666811556744,0.00753177388788807
113,6.792535550831994e-05,0.004779975494489958,0.05042487989387112,0.008241684021382945
114,5.552877136899149e-05,0.0038879140257123933,0.05906672330165108,0.007451762970531957
115,7.46439096532189e-05,0.005620814765725386,0.052641423093131134,0.00863967069124848
116,4.632600123900651e-05,0.003954293645206191,0.059033472362693296,0.006806320682939204
117,7.396060651738725e-05,0.00459321947107007,0.07143269613851722,0.008600035262566467
118,4.1603887840179266e-05,0.003807225507268169,0.0618937881892907,0.006450107583612765
119,2.7953682077572355e-05,0.0030770177412964214,0.046186963634044176,0.005287124178376385
120,3.357418823375678e-05,0.0038063124346224527,0.059378236293487596,0.005794323794348779
121,5.9556762192621325e-05,0.005565525244478774,0.04824966734961933,0.007717302779638803
122,4.981357162676864e-05,0.004767460643870517,0.06024432911715216,0.007057873024273547
123,4.184913696534419e-05,0.0030383334510250336,0.05651077085892764,0.006469090891720686
124,3.902679546535762e-05,0.004013587913996356,0.059518899678203674,0.006247142984225464
125,4.166811887346218e-05,0.0037596663156716148,0.0464577892830742,0.0064550847301535555
126,8.832298128188795e-05,0.006056251766679875,0.05705792010042421,0.009398030712967853
127,2.923211394567065e-05,0.0034040730724479774,0.04832180445001333,0.005406673094026524
128,6.461247195195629e-05,0.005070193637881581,0.056867715182383316,0.008038188350116948
129,5.299475550962784e-05,0.004548640107616268,0.05689638343253689,0.007279749687291956
130,5.1986628032988326e-05,0.005099360792293201,0.04064148857748462,0.007210175312222859
131,5.2477928831453177e-05,0.004204379868791602,0.053696561645268925,0.007244165157659844
132,5.477498059640813e-05,0.004553159927245908,0.05183499681299386,0.007401012133242842
133,5.6810705035184036e-05,0.004851798559012572,0.05105189780877528,0.007537287644450323
134,5.9610965192257194e-05,0.004192483364555588,0.05175266585725746,0.007720813764899167
135,5.242258125277891e-05,0.003863268833352198,0.05825968213369159,0.0072403440009973456
136,8.771758499909046e-05,0.0044421066525206524,0.06800670684659327,0.009365766653034333
137,6.18308023476607e-05,0.005471342515383793,0.051672852435210415,0.007863256472204162
138,7.023543806647167e-05,0.003868206656279688,0.06922016233484207,0.008380658569973555
139,2.8673501596324455e-05,0.003045790302275792,0.05900049280709174,0.005354764382895327
140,4.7640199004524744e-05,0.004811146593182309,0.05291766684049204,0.006902187986756395
141,4.568168450142757e-05,0.004763775041770386,0.051701242348052456,0.006758822715638232
142,4.4622264314947554e-05,0.004056714305388123,0.049924070806622034,0.006679989843925453
143,7.347247159202614e-05,0.005717099887798351,0.0503732482914816,0.008571608460028137
144,3.853057855063292e-05,0.0037273297264957526,0.06642974236533394,0.006207300423745615
145,3.970936669611775e-05,0.002952676764957746,0.06877122177303274,0.0063015368519209105
146,3.2279771748686564e-05,0.002757328796457484,0.055180801839540994,0.0056815289974342575
147,5.499501647995675e-05,0.004729444856584002,0.058030639256565486,0.007415862490631586
148,7.060938448018125e-05,0.004828696614005011,0.053599081224263045,0.00840293903822829
149,6.087783702965702e-05,0.00431358776583629,0.06099251113489662,0.007802425073632968
150,5.399310089646188e-05,0.004597148609690036,0.06565093315205273,0.007347999788817457
151,7.418689454761117e-05,0.005013986868842658,0.07132610141303708,0.008613181441697976
152,6.880797947200519e-05,0.005574365143145917,0.05577967956482155,0.008295057532772453
153,4.5326577469888476e-05,0.0036911739740495843,0.04686238865897874,0.0067325015759291205
154,6.02799065230264e-05,0.004586948223420792,0.062312686208720214,0.007764013557627633
155,5.171859483908552e-05,0.0037344800982902168,0.058477531271845073,0.007191564144126438
156,4.083143298757774e-05,0.004121595691269046,0.06652175883194111,0.006389947807891505
157,4.929084554802386e-05,0.0043703278112029375,0.042723222448486364,0.007020743945482081
158,5.653693600400593e-05,0.00439998509940253,0.05137863035784074,0.007519104734209072
159,6.500579078210254e-05,0.005032924989485951,0.06275273666155257,0.008062616869360833
160,6.0145612596923656e-05,0.004972593649278197,0.046550244932815676,0.007755360249332274
161,5.9536629413840465e-05,0.004967861761615307,0.06083131161531252,0.007715998277205616
162,5.4572125254671115e-05,0.004917279373979602,0.0536600283611528,0.0073872948536436904
163,5.8518805041146557e-05,0.004828046119683782,0.06339403136162891,0.007649758495609264
164,4.378022725719268e-05,0.004664921863369785,0.03487287114728277,0.006616662848989098
165,4.5297170542823296e-05,0.004303969088711373,0.05372625583411361,0.006730317269105721
166,5.4621635329062354e-05,0.004435989413180816,0.04564118347013835,0.00739064512265755
167,4.543799778105118e-05,0.004116314787377956,0.04918955510537648,0.00674077130460979
168,5.6518215531034755e-05,0.004321271447166271,0.053958720479627686,0.0075178597706418
169,3.4040173765078904e-05,0.004228370498279501,0.05014251017573912,0.0058343957497823664
170,5.5552412064055484e-05,0.004107728565418244,0.05813264814951015,0.007453349050195832
171,7.12861586737345e-05,0.004386794017524178,0.05158461955636129,0.008443113091374183
172,7.225318680617948e-05,0.004859052333074356,0.07155605209153126,0.008500187457119914
173,7.162164101268388e-05,0.004899286804651854,0.056827963444191276,0.008462956989887336
174,4.177096302374561e-05,0.0037895812144057976,0.04999156920282255,0.006463045955565013
175,6.530938535362948e-05,0.004957965654159195,0.043048491202755224,0.008081422235821424
176,6.00702992224271e-05,0.005557063053987457,0.049798664706149465,0.007750503159306911
177,3.709970179730105e-05,0.00443422490898315,0.04062268070580499,0.006090952454033823
178,2.9688721412654103e-05,0.0033190649548742756,0.040483280446430125,0.005448735762785165
179,7.462249899437383e-05,0.004312222231682966,0.06656430210540432,0.00863843151239699
180,6.61120490509632e-05,0.003986505393929051,0.06035888882227325,0.00813093162257331
181,4.659349065885402e-05,0.004032639111899074,0.04400645923694402,0.006825942474036358
182,4.7485737538164334e-05,0.0032076421252986214,0.0642385034928874,0.006890989590629498
183,4.8051824982063455e-05,0.004031729931511824,0.06789244292748564,0.006931942367191394
184,4.4697810119868686e-05,0.004271156528547421,0.049582813842896645,0.006685642087329236
185,8.325094760420239e-05,0.005321947710885915,0.06155261637459808,0.00912419572368993
186,4.030809184755626e-05,0.0033208866334147793,0.04995313026147752,0.00634886539844372
187,7.293762690234313e-05,0.004710961998205765,0.06743239320013883,0.00854035285584515
188,6.0656293142278806e-05,0.004496861067251103,0.05604684513009628,0.007788215016438514
189,4.4102476295297316e-05,0.004048599228517825,0.05726516311008467,0.006640969529767247
190,3.426429286647061e-05,0.003203898253798714,0.06406486787149301,0.005853570949981758
191,6.644751235058302e-05,0.0037735214121577703,0.06369253693325772,0.008151534355603406
192,5.7463975013877024e-05,0.0038178988013350974,0.08287929682215989,0.007580499654632063
193,3.18554565497677e-05,0.003548424805542684,0.04044949986332935,0.005644063832892699
194,7.662201347778948e-05,0.004388061989798957,0.06662158493735504,0.00875340010954534
195,5.6490876665253096e-05,0.004500356930344886,0.05066921889886755,0.00751604128948562
196,5.7346576812339405e-05,0.005242831436031624,0.052667623917963535,0.007572752261386801
197,3.5016382303820354e-05,0.0038857602322961075,0.05071813164602723,0.005917464178499105
198,6.165802637917685e-05,0.004742430577535748,0.0630308745678676,0.007852262500653953
199,5.011206718175895e-05,0.0039163854358824106,0.06301815079406947,0.007078987722955761
200,8.199273800984453e-05,0.004414969369968126,0.06442652380542402,0.009054984152931678
201,4.8110660176704866e-05,0.00369433385608458,0.05597331107150927,0.006936184843031837
202,5.752931347888236e-05,0.0037594149780931854,0.06671332564598353,0.007584808071327964
203,7.759209938629105e-05,0.004228827371457017,0.06752033612820352,0.008808637771318026
204,5.8741022743811424e-05,0.004448093808699101,0.08354223184561826,0.0076642692243821375
205,3.3741646262235845e-05,0.0037646812884179195,0.060977769141065785,0.005808755999543761
206,3.3255488975897e-05,0.0035443068775846114,0.04358612766737702,0.00576675723226639
207,5.648702971102848e-05,0.003735357275715751,0.0648189883542547,0.007515785368877157
208,3.126274506750651e-05,0.0029231040408143525,0.05052269785211916,0.005591309781035773
209,3.2091969280460014e-05,0.003763807281441167,0.027569503504471182,0.0056649774298279075
210,7.231956959564705e-05,0.005031944776120468,0.04536522781145047,0.00850409134450276
211,4.10722846654959e-05,0.004123331618715775,0.05400345597761014,0.006408766235828511
212,6.487049330874916e-05,0.005259617687184299,0.037443036418615794,0.008054222079676503
213,3.501696160488764e-05,0.0038498872142351927,0.05018654415574342,0.0059175131267186305
214,7.11078063657775e-05,0.0043928709652590004,0.05649987527689504,0.008432544477545134
215,4.653785228129432e-05,0.004661846787340615,0.03994431779199786,0.006821865747821039
216,2.5549492906702913e-05,0.0030003101344716573,0.05469724022491684,0.005054650621625863
217,7.632897643876106e-05,0.0045626283293855275,0.06134682423409199,0.008736645605652111
218,7.66362783215001e-05,0.004452169899361501,0.07371808405385138,0.008754214888926337
219,6.718900927429898e-05,0.004900352003293689,0.06424009256663799,0.008196890219729563
220,5.059325746628288e-05,0.004654973710996599,0.06513287277795032,0.007112893747714943
221,4.723285724605208e-05,0.0045634703105272584,0.06613046190067084,0.0068726164774452385
222,5.324436339710751e-05,0.004539009959231669,0.04730286368771508,0.007296873535775921
223,6.153881640996233e-05,0.004298655637274296,0.06048987016398977,0.007844668024203551
224,6.932502386377523e-05,0.004283386732881154,0.06740820298110517,0.00832616501540622
225,6.249656426018749e-05,0.004792856588434126,0.056898181391911606,0.007905476852169446
226,5.166478630862283e-05,0.0037267551284158548,0.0639720633976193,0.007187822083818034
227,8.21992888901781e-05,0.004911277598320581,0.0649515546532351,0.009066382348554334
228,5.620716058705997e-05,0.004970340682092299,0.047276015293322704,0.0074971434951626335
229,7.484918682721121e-05,0.005078122910158791,0.05950620274744267,0.008651542453644358
230,6.277490347639424e-05,0.0049313008165172345,0.04694964837768323,0.007923061496441513
231,4.9425347617711826e-05,0.004487137274079197,0.07185601449777668,0.007030316324157221
232,6.796931319211493e-05,0.00428423916645286,0.054527239936382976,0.008244350380236987
233,6.52031782692858e-05,0.00460724086483714,0.05565537331836268,0.008074848498224908
234,5.506340677882389e-05,0.004191810039666398,0.06720660175257676,0.0074204721398859474
235,8.007678253884962e-05,0.0049639404165587485,0.07475527720483899,0.008948563154990237
236,5.731133196786933e-05,0.005026019545967841,0.05174020085870157,0.007570424820831961
237,5.537850781904434e-05,0.004524539508264729,0.06148972714588008,0.007441673724307188
238,5.390651625806266e-05,0.003920630514487604,0.05762499386052,0.007342105710084977
239,5.782590558557061e-05,0.003798671128483619,0.06482842807544809,0.007604334657652169
240,2.9747418645301207e-05,0.0034433690071497135,0.04846939769194458,0.0054541194197873
241,6.366722847924782e-05,0.004770650989613752,0.06737290693847164,0.007979174674065429
242,7.75088796959106e-05,0.005283250521266549,0.06470711734586132,0.008803912749221784
243,3.637883876730827e-05,0.0042016993063278465,0.04277795561949782,0.006031487276560227
244,3.9178778195081925e-05,0.003200230097512957,0.06201986802647497,0.006259295343333913
245,4.1925787912732694e-05,0.004370063367610244,0.04571840325340634,0.0064750125801215615
246,6.54111081030953e-05,0.004000287614341283,0.06544868689446215,0.008087713403867304
247,7.068903763049568e-05,0.004954536858983066,0.06371633482280137,0.008407677302947272
248,6.386350606771521e-05,0.0049579539127244145,0.046276123681710635,0.007991464575890608
249,5.161663196854734e-05,0.004464555274148482,0.051197292472501155,0.007184471585895987
250,4.3011438644275123e-05,0.0048913250724776335,0.05611208510409549,0.0065583106547551385
251,7.08798800213526e-05,0.004488608793557969,0.05805508329653053,0.008419018946489675
252,6.87619500095515e-05,0.004830555022829376,0.058676177568564025,0.008292282557266793
253,3.6529588574477014e-05,0.0036384815815137072,0.05045320600029646,0.0060439712585746656
254,4.718092099059205e-05,0.004452704903007435,0.05410607172904891,0.006868836945989587
255,8.933912515419439e-05,0.005734836688964697,0.04737842965147632,0.009451937640198086
256,6.079588353787996e-05,0.005441611682107314,0.05070615636999021,0.007797171508815217
257,5.399811557221177e-05,0.004056028260543969,0.04575881854097619,0.00734834100816038
258,8.756324545991581e-05,0.0052703974381637046,0.06829473992153456,0.009357523468306947
259,7.352509474520895e-05,0.004863463318806227,0.044734923466571264,0.00857467753010039
260,4.409928662950032e-05,0.00403433812285635,0.05978776914580308,0.006640729374812689
261,3.7592530930378006e-05,0.0036689043583458076,0.061117466578171964,0.006131274820979539
262,6.092783122059854e-05,0.0050009080438480945,0.07121359848434805,0.007805628175912426
263,4.474337516045309e-05,0.0043879216958767776,0.04404826884711105,0.006689048898046182
264,6.42311745575929e-05,0.004406404706057882,0.05961297061719861,0.008014435386076336
265,3.3207379305726526e-05,0.003759145418001813,0.07050664467387158,0.005762584429379431
266,7.04515430710728e-05,0.005937214318678448,0.040494367339710395,0.008393541747741064
267,6.0505747339889644e-05,0.004917647922735317,0.06365626320172169,0.007778544037279023
268,5.751780162339144e-05,0.004127055969709444,0.07033283649493915,0.007584049157500947
269,7.336309313977388e-05,0.0049329135926825035,0.05589451644993293,0.00856522580786832
270,6.102505335527046e-05,0.004467367364366566,0.06329325937043517,0.007811853387978409
271,3.038907943952701e-05,0.002585656787543181,0.05305563970517535,0.0055126290859740315
272,5.09911576956606e-05,0.004577758586650304,0.05755931875481157,0.007140809316573299
273,5.622839533398724e-05,0.003942669665490792,0.05689893944936664,0.0074985595506061545
274,4.175652657820584e-05,0.004258544891162671,0.0431822992973423,0.006461929013708336
275,5.842370742390095e-05,0.005111160399544133,0.05207314288710174,0.007643540241530787
276,4.322252131923361e-05,0.003480036137227724,0.06356191645348197,0.006574383721629977
277,5.4357850463264694e-05,0.004474522999290981,0.047975081889832794,0.0073727776626766875
278,5.01638717398911e-05,0.004277848431662815,0.057508373122235,0.00708264581494025
279,7.769053345126276e-05,0.004385718649207394,0.06857159106986188,0.008814223360640583
280,4.0724701063038255e-05,0.00394274711841737,0.049673588875018604,0.006381590794076189
281,6.812839315367767e-05,0.0040209993253726905,0.05455866653193908,0.008253992558373021
282,3.158604455540968e-05,0.0035109894214465625,0.06714659357334618,0.005620146310854323
283,4.307185656563328e-05,0.004221842776504396,0.06435098534382577,0.006562915249005805
284,5.757974254125752e-05,0.005091977174361396,0.05724623734167289,0.007588131689767713
285,7.624351197877618e-05,0.005505747723167036,0.05656805594468639,0.008731753087368866
286,4.739458451103477e-05,0.003499315620653389,0.05723981401254097,0.006884372484913507
287,6.493975430817634e-05,0.0051331293792840444,0.04831796378406583,0.008058520602950384
288,6.0455505277344165e-05,0.003965694577492237,0.05579942032530072,0.007775313837868134
289,8.294256558230066e-05,0.005359527068149419,0.052785079724894324,0.009107280910474878
290,5.432924684972842e-05,0.0034804638759773194,0.06589994536471933,0.007370837594854993
291,5.378825682658048e-05,0.004455870123895187,0.047783841720414166,0.00733404777913126
292,6.728469367959466e-05,0.00538338338288539,0.06123872422814047,0.008202724771659377
293,7.2054524889329e-05,0.003960322347675387,0.07378548505784988,0.008488493676108166
294,5.394786265369809e-05,0.003927402607557275,0.05769892719394054,0.007344920874570237
295,6.803900813297548e-05,0.005392918950557338,0.05807751121177285,0.008248576127609833
296,8.673934067490258e-05,0.005879684933403552,0.071528025346149,0.009313395764966818
297,4.9815711966798474e-05,0.0036033908078057226,0.05461582780593233,0.007058024650481044
298,7.367957154324791e-06,0.0016053133268012097,0.028754107307338257,0.003838738635105209
299,4.946088728492787e-05,0.0036717887009046195,0.0635806453021357,0.007032843470810894
300,7.638142778345249e-05,0.004694511649198923,0.05623887350822837,0.008739646891233757
301,9.261040275907735e-05,0.004139569663451522,0.08601915698557372,0.009623429885393078
302,7.005612809767629e-05,0.004314471690078937,0.0637012209558172,0.008369953888623034
303,5.559261382818035e-05,0.004249661686581976,0.04935783839984165,0.00745604545507737
304,5.491281124631919e-05,0.004245545476861755,0.052782467013104295,0.007410317891043469
305,7.509767781723188e-05,0.005206623868684001,0.048104372023948905,0.008665891634288474
306,4.802510307648928e-05,0.004684422728088617,0.04602299358314532,0.006930014651967824
307,6.0632295408989694e-05,0.0046028937977198245,0.05732882481465126,0.007786674220037008
308,5.869530446540665e-05,0.004576488226427546,0.051373394626491375,0.0076612860842945945
309,7.234985518475164e-05,0.005043267360337496,0.05946241275963171,0.008505871806273064
310,7.346950334775102e-05,0.0059717169902242274,0.049640669452481134,0.008571435314330394
311,6.359436606555951e-05,0.005434928143317074,0.04749594539785343,0.007974607580662455
312,6.222206287695184e-05,0.004642316972837297,0.06312140330122418,0.007888096277109657
313,4.7126524747327834e-05,0.004570160260927791,0.046780399239649384,0.006864876164019822
314,7.445113235366794e-05,0.005247243035700831,0.05435116997268841,0.008628506959704404
315,5.710969762689684e-05,0.004476794459946549,0.04535569056677924,0.007557095846083746
316,4.874681343236909e-05,0.005392749787471156,0.04237189597006563,0.006981891823307551
317,4.903060157529368e-05,0.003867046937349225,0.06659029636412939,0.007002185485638992
318,4.371482003982486e-05,0.0036067696156047734,0.06873939455682421,0.0066117183878190424
319,7.765930652521315e-05,0.004993133958906112,0.05476048983336579,0.008812451788532651
320,5.6586483081188025e-05,0.004467469921360257,0.06823878739981337,0.0075223987584538245
321,4.273866548066575e-05,0.003866979964748705,0.058703674966655406,0.0065374815854934085
322,2.9901367071629488e-05,0.0029672326211490473,0.05233284995585241,0.0054682142488777
323,5.261616926433176e-05,0.004289823900837542,0.0773748100193063,0.007253700384240528
324,3.4624898324183736e-05,0.0037249635879933094,0.04969260800507902,0.005884292508380547
325,6.914333441159578e-05,0.004894830143726696,0.06292701483143581,0.008315247104662343
326,6.032358584559615e-05,0.004753265109904331,0.04790353546302484,0.007766825982703333
327,5.154716659744751e-05,0.0048083640049105415,0.05979161601921401,0.0071796355476756064
328,6.629583667260274e-05,0.004576284999152275,0.05768426760565282,0.00814222553560156
329,6.732881228547039e-05,0.004891091449758051,0.063995570689654,0.008205413596246686
330,7.228877945401206e-05,0.0049711367061937815,0.04786814621738267,0.00850228083834046
331,5.21604806011223e-05,0.0049333451387057765,0.05467639335909791,0.0072222213065733405
332,3.529618634467143e-05,0.003275235668131435,0.04480375676458204,0.005941059362156828
333,4.316156438877146e-05,0.0031315029155125802,0.0660097610195387,0.006569746143403951
334,7.29464178391977e-05,0.005011707789560184,0.06795789855595968,0.00854086751092636
335,5.4554556678936515e-05,0.004129183695193097,0.06502252452834045,0.007386105650404411
336,7.374734115185702e-05,0.004613952240671158,0.05968456984682646,0.00858762721313964
337,7.441896458311732e-05,0.004125320692589854,0.07287240973871079,0.0086266427179475
338,4.5787170462148825e-05,0.004761500877346924,0.04716826097054572,0.006766621790978754
339,7.256869586160709e-05,0.003990890750543727,0.05493655095730032,0.008518726187735255
340,4.708927202461996e-05,0.00518873041892471,0.04142584796332471,0.006862162343213663
341,4.82357017897628e-05,0.003763311121864109,0.053974987986554535,0.00694519271077215
342,5.3223441718154324e-05,0.004570917794606159,0.0516086099167552,0.007295439789221334
343,4.73669610072238e-05,0.004436366458612382,0.046255159712096316,0.0068823659454597015
344,4.2985168893997044e-05,0.004314130988002081,0.04671620645530439,0.006556307565543018
345,5.300330278830557e-05,0.004830243601998517,0.05642891932218874,0.007280336722178823
346,8.339794332176624e-05,0.0043518793710021365,0.06781785182245414,0.009132247440896763
347,6.550921903858489e-05,0.004248429812439977,0.061295494648194504,0.008093776562185575
348,4.2231055798759814e-05,0.003494268104162561,0.05537931898772119,0.006498542590362849
349,7.255052595919735e-05,0.005272020840949442,0.05087471551503886,0.008517659652697839
350,6.354042778881161e-05,0.00392928656405639,0.07201117463862405,0.007971224986713838
351,4.964454796487527e-05,0.003353059947089014,0.0683648316292671,0.0070458887278238265
352,2.584573624023043e-05,0.002954625714011605,0.03798429973464357,0.005083870202929086
353,6.805268741621562e-05,0.004674700598485551,0.05121595509999799,0.008249405276516294
354,5.88320041691579e-05,0.006206466679062038,0.04405995736319657,0.00767020235516361
355,5.187946401797925e-05,0.004080168320620645,0.05825698753120445,0.007202740035429481
356,4.037684644523336e-05,0.003643362709208668,0.051522045766935864,0.006354277806740366
357,7.539024039713503e-05,0.006650952905723943,0.042270506454544554,0.008682755345921844
358,4.277382124402842e-05,0.0031372197508411225,0.07325130262255275,0.006540169817675067
359,3.61372490359416e-05,0.0037418469599095516,0.05075766256312578,0.006011426539178646
360,5.674900780517162e-05,0.005425463521901936,0.044039128060072485,0.007533193732088078
361,7.55118857948179e-05,0.004211139666674896,0.08549485308363014,0.008689757522210698
362,3.9319702475566866e-05,0.003909707351446853,0.05869818654352521,0.006270542438702305
363,5.3877661352874564e-05,0.004051631694373611,0.04742667054715355,0.007340140417789973
364,4.820995630090565e-05,0.0037728936770551136,0.05827333113119737,0.0069433389879009445
365,6.180615219999967e-05,0.004500658437044529,0.054486235733108845,0.007861688889799656
366,5.0881394928500834e-05,0.0043689364505766996,0.061054874483991384,0.007133119579013129
367,6.031832206355709e-05,0.004717605476466676,0.05555053522125941,0.007766487112173482
368,6.505673403411697e-05,0.005406341147944892,0.04880299339547256,0.008065775476302103
369,3.248449133409431e-05,0.0034954913733276248,0.04962022463639215,0.005699516763208441
370,5.7599028479363834e-05,0.004969347151077686,0.05323352973629536,0.007589402379592436
371,5.3552243367430414e-05,0.004726343638479308,0.05023960085989865,0.007317939830815108
372,4.081256839671885e-05,0.003775483566905322,0.05679224862794463,0.006388471522728924
373,6.627536906918431e-05,0.004840488037618639,0.05328959310994685,0.008140968558420045
374,5.088554330261194e-05,0.004204814079677388,0.051725572423417354,0.007133410355686234
375,4.1453383561438115e-05,0.0034954456537891893,0.05845634522207099,0.0064384302094095775
376,6.158667610380853e-05,0.004451985133712363,0.058333437153652135,0.00784771789145149
377,3.0163354112833385e-05,0.003233837224291485,0.04081158831951193,0.005492117452570837
378,6.634031972715891e-05,0.004421283540401326,0.058170733078017456,0.008144956705051188
379,4.6572176658321246e-05,0.003540001695147192,0.045127356898514215,0.006824381045803421
380,4.282535558426857e-05,0.004482137659978167,0.06395700102979163,0.006544108463669294
381,3.844497328432821e-05,0.0034078853852543595,0.0767677183094726,0.006200401058345162
382,8.44591428845311e-05,0.0050909687250571345,0.05833564828882354,0.009190165552618217
383,3.9500370774005206e-05,0.004182481296714179,0.05049710308413946,0.006284932042115096
384,4.5916958919893596e-05,0.0040304927548444214,0.04818051371559218,0.006776205348120231
385,6.02762761487346e-05,0.0037942555301755717,0.07202161281853847,0.007763779759159469
386,4.4950468453211424e-05,0.003520301891822215,0.061710751997785085,0.006704511052508687
387,6.200929238039128e-05,0.004176519013823382,0.04878778598103228,0.007874597918648963
388,4.664253985547206e-05,0.004002089509684955,0.04238110372713588,0.0068295343805761495
389,5.165788551336695e-05,0.004829057426390892,0.08755087585931953,0.00718734203397657
390,4.697737839357304e-05,0.004554230089197926,0.05057549284962781,0.006854004551615996
391,3.8778653343654846e-05,0.0034701832771799877,0.0644662827362712,0.006227250865643242
392,6.446633518033698e-05,0.003957893601037329,0.06642791396323333,0.008029093048429345
393,4.140858490131584e-05,0.0037788846426245735,0.06489221672813872,0.006434950264090273
394,3.5324864940773046e-05,0.003474008731033355,0.04519480557544364,0.005943472464878831
395,3.87975264473363e-05,0.003981070695950299,0.05441202789817279,0.006228766045320379
396,4.298732707009471e-05,0.003968063914374109,0.04536843441139171,0.006556472151248295
397,2.840799583794357e-05,0.003296133897689662,0.045753089359289234,0.00532991518112095
398,3.7125577522068655e-05,0.004235883069867476,0.045528162166823094,0.00609307619532764
399,4.590490442000554e-05,0.0037510331029372915,0.052814632828495744,0.006775315816993707
400,3.2923443417790167e-05,0.003404562742523212,0.057263120334721584,0.005737895382262551
401,3.14150367120719e-05,0.003939810482865553,0.03417982697257374,0.0056049118380284675
402,4.853997273705605e-05,0.0046265181904738845,0.051865707158039065,0.006967063422781196
403,5.872755108392356e-05,0.005358342170089649,0.061723148188528976,0.007663390312643806
404,4.7168811542374154e-05,0.0040440102810416585,0.04747063298414922,0.006867955412083978
405,5.000104745556707e-05,0.004103156684721289,0.06261119093773226,0.007071141877770987
406,6.396676888852645e-05,0.005166206198400292,0.05372842226657082,0.007997922785856714
407,6.941767776628544e-05,0.0044406090757231655,0.05580782161164022,0.008331727177859623
408,5.980969664804159e-05,0.004867114765057369,0.06086220340223303,0.0077336729080069696
409,6.287774422260952e-05,0.0039491193610380676,0.18537700462765372,0.007929548803217558
410,5.631389115045878e-05,0.00525123910623032,0.04948229191864162,0.007504258201212052
411,8.316612103920043e-05,0.005927725239218588,0.057826515099938636,0.009119546098309929
412,4.3643560934610225e-05,0.003920445061723765,0.05959556580293368,0.006606327340861187
413,6.010142577174642e-05,0.004853985706329945,0.060145949287819855,0.007752510933352226
414,7.497118610915467e-05,0.005203292208395265,0.0764118489302339,0.008658590307270224
415,6.204506773513519e-05,0.004496391892184781,0.05184274416917978,0.007876869158182987
416,3.934006001343867e-05,0.00399610821986124,0.04503529396267636,0.00627216549633684
417,3.741691228821174e-05,0.0033708343630382957,0.06824662267645554,0.006116936511703502
418,6.320827017731644e-05,0.0052765091456598535,0.05962507659863536,0.00795036289595109
419,4.077920784220027e-05,0.004183945698848163,0.052860292694767,0.006385859992373756
420,4.847402498237633e-05,0.0040896159935232415,0.059196704338285056,0.006962328991248264
421,9.00147549362957e-05,0.006504432541900221,0.05498207530596125,0.009487610602058617
422,6.767056642786052e-05,0.0038495317019048444,0.06848791812905364,0.008226212155534275
423,5.8601851923129864e-05,0.005178333842837695,0.05075775447697706,0.007655184643307395
424,7.392559827801186e-05,0.005604930217843802,0.05617233839945579,0.008597999667248836
425,6.580132057782972e-05,0.004359376332778757,0.05635293775378125,0.008111801315233837
426,5.057904233139819e-05,0.003944143534025433,0.046838656795656686,0.007111894426339412
427,4.063517193241416e-05,0.003980950206255326,0.05979279811949034,0.0063745722940769835
428,3.235961303952037e-05,0.003287208435423875,0.04964342082796991,0.005688551049214561
429,5.919563506687724e-05,0.004929914029704027,0.056462361920947446,0.007693869966855227
430,5.3246280561461526e-05,0.004327481248826005,0.04497309213336953,0.007297004903483431
431,8.242529021706342e-05,0.005410075701773026,0.05517043508978681,0.009078837492601268
432,5.056630581860691e-05,0.004279999080810124,0.06326334203658487,0.007110998932541513
433,8.701265418914979e-05,0.004337213420507398,0.07387442691906898,0.009328057364164796
434,7.190780392114762e-05,0.005389036008278985,0.05117254665191728,0.008479846927931385
435,5.1331339198116034e-05,0.003727456373289628,0.06552793187223482,0.007164589255366682
436,4.345802401919719e-05,0.004454625627151953,0.05490424919133696,0.006592270020197641
437,6.649992406239701e-05,0.0048106295503924385,0.059525710353022454,0.008154748559115505
438,5.007544238947688e-05,0.004462892131927681,0.05604528345513593,0.007076400383632663
439,2.089555148461156e-05,0.002971530088348965,0.031366090291073956,0.004571165221758174
440,8.538958016736741e-05,0.0058674970189257205,0.04656809674682923,0.00924064825471498
441,7.267449512953759e-05,0.005354373677814782,0.05541879263220251,0.008524933731680095
442,7.014188621757951e-05,0.005926349253884656,0.046216577258051394,0.008375075296233405
443,6.229217150767561e-05,0.004772351833910931,0.06839059904795466,0.00789253897726676
444,5.8855427082587026e-05,0.004069751863536804,0.06628376319865407,0.007671729080369466
445,4.9331493647351335e-05,0.004127009819760572,0.049208548194712654,0.007023638205898057
446,5.626261257443365e-05,0.00488168094505946,0.04987036039033632,0.007500840791166897
447,7.004085482042533e-05,0.005041401187703019,0.05693931559417287,0.00836904145170908
448,5.584439898508249e-05,0.003762635871285597,0.05997577977494384,0.0074729110114521045
449,3.7236379225269934e-05,0.003002372137795812,0.05814013649127103,0.006102161848498415
450,4.656080924799566e-05,0.004155586759771831,0.0662341168583116,0.006823548142132157
451,3.46859956023294e-05,0.0029858571223467844,0.05683959089720858,0.005889481777060614
452,7.816546956288661e-05,0.004731105559759073,0.078331445672283,0.008841123772625636
453,4.840577442402956e-05,0.003926249280811102,0.04682305585271873,0.006957425847540831
454,5.205601982961458e-05,0.004571702304231569,0.05653716757889504,0.007214985781664018
455,2.7820161290598693e-05,0.0038880038108412254,0.04916704079265877,0.00527448208742798
456,5.9191588959065345e-05,0.0035244249461877453,0.06396674095019739,0.00769360701875687
457,5.397845401437634e-05,0.0037092107100150525,0.06110406814926188,0.007347003063452193
458,5.0984522532200226e-05,0.004047166956532827,0.06295132036811824,0.007140344706819134
459,5.4211402600701746e-05,0.0039007500699236915,0.057662956010894884,0.007362839302925294
460,5.580439469265579e-05,0.005009691374690256,0.0535747553544339,0.007470233911508733
461,5.427479430176756e-05,0.004656186418264575,0.05596005856135572,0.007367142885933947
462,4.459485360941229e-05,0.004271010927355682,0.04936760463166301,0.00667793782611158
463,5.7959085534788445e-05,0.0049607828286581815,0.052901338239437656,0.007613086465736995
464,5.990390032191448e-05,0.0052539710509246365,0.046693126707144095,0.007739760999017592
465,3.862529058354365e-05,0.0038155420447026104,0.05223864518330634,0.006214924825252784
466,5.492841388324258e-05,0.0038398919424124907,0.06234782459880428,0.0074113705806174626
467,5.667604991179883e-05,0.004271034308084646,0.05792721793264338,0.007528349746909899
468,6.730848062489806e-05,0.005386141764598884,0.046992646179575215,0.008204174585227778
469,6.144172842690619e-05,0.004481251323540344,0.06818349471943952,0.007838477430401008
470,5.7306843989139654e-05,0.004099454085638599,0.05673759042636917,0.007570128399778914
471,3.622134060892335e-05,0.0036576186163051797,0.050105895722283966,0.006018416785909976
472,6.37219736245982e-05,0.004779798933659188,0.049922840256473755,0.007982604438690283
473,5.91950694346414e-05,0.004706457392285498,0.06308552311303961,0.007693833208137602
474,6.739580877525888e-05,0.005107467640242405,0.04612784683285076,0.008209495037775372
475,4.7656856701736575e-05,0.004103320468959311,0.05084927878599421,0.006903394578157619
476,3.0008966699891063e-05,0.0034288163485815073,0.052470164228038296,0.00547804405786325
477,4.580106086176838e-05,0.004298572285862252,0.048775962147992624,0.006767648104162015
478,3.7781485330628316e-05,0.0035328683108879315,0.056975832968483964,0.00614666456955543
479,6.982722357868285e-05,0.004529116844787872,0.051682314691417125,0.008356268520020315
480,7.291131115040201e-05,0.00516286939425947,0.06051168820058095,0.008538812045618616
481,6.840991280419077e-05,0.005172178351185789,0.04928581702087964,0.008271028521543752
482,6.664667304269287e-05,0.004067981754078731,0.06408377825401312,0.00816374136304502
483,3.600361304178083e-05,0.0038173548903082813,0.04380817210387067,0.006000301079260972
484,5.0919416666433674e-05,0.004988705552567387,0.05193338895673527,0.007135784236258361
485,3.179489045716473e-05,0.0033701019406929857,0.051101663289619625,0.005638695811724954
486,7.49132058720738e-05,0.005314037683453821,0.05968221854625799,0.008655241525923646
487,6.011881592114318e-05,0.004203335621892752,0.0689183333163057,0.007753632433972017
488,2.259956744533233e-05,0.0023897918803803516,0.05038981426133082,0.004753900235105088
489,5.831979735961797e-05,0.004240415936457301,0.055788674985501,0.007636739969359809
490,3.038579244709968e-05,0.003453467282530427,0.03989978401662597,0.005512330944990471
491,7.520284366406808e-05,0.004593826237111504,0.05979465342546586,0.008671957314474484
492,6.675645202617987e-05,0.005504853673418078,0.05641173345949202,0.008170462167232592
493,8.972047321928681e-05,0.006042921389460843,0.05139815790985702,0.009472089168672676
494,5.576640952036507e-05,0.004999837935998621,0.04470288915066878,0.0074676910434460725
495,4.066926881875893e-05,0.0035881250892158966,0.05499070344179291,0.006377246178309145
496,8.40830349703871e-05,0.004951814531321018,0.06359506457703201,0.009169680200006249
497,5.81672709125633e-05,0.005097204266207977,0.055588359785253116,0.007626747072806523
498,7.235827992525585e-05,0.004900209820288844,0.06279646859037813,0.008506367022722176
499,3.476203073948088e-05,0.0031633061745788226,0.08299997990641339,0.00589593340697473
500,6.963671884957742e-05,0.004878214819759705,0.05930533049772935,0.008344861823276446
501,4.83496996612723e-05,0.004674263722603411,0.038499209274937995,0.00695339482995694
502,4.697460426434613e-05,0.004395942329921406,0.06077807511829825,0.006853802175752198
503,5.119932173888556e-05,0.004765414123749047,0.05737436827723563,0.007155370132906132
504,6.0692127580207244e-05,0.004797787173930884,0.05888824163427753,0.0077905152320117245
505,5.6256928588090174e-05,0.0047162471785672285,0.0571935613579162,0.007500461891649727
506,6.051999496106967e-05,0.004975663812530021,0.05765565832429087,0.00777945981164947
507,5.672616073874492e-05,0.005167901103117007,0.05143231332073617,0.007531677153114344
508,6.833875461075856e-05,0.004725436950606752,0.05456828042237927,0.008266725749095472
509,7.013493020151747e-05,0.005539017216798083,0.05318960781665982,0.008374660005129575
510,7.195126061134929e-05,0.005297270731266541,0.049514303218392564,0.008482408892015772
511,5.262942267072576e-05,0.005416440797987718,0.03527089886879686,0.007254613888466108
512,5.1576097785771534e-05,0.004056461524772173,0.05820323907009922,0.007181650074026928
513,4.863064210856668e-05,0.003629198893423747,0.05769006496531537,0.0069735673875403435
514,8.096591655273266e-05,0.005787138958013282,0.07072346939423602,0.008998106275918938
515,5.1779418757269895e-05,0.004403423921439299,0.04300470644929044,0.007195791739431421
516,6.156445756529302e-05,0.005808641963454414,0.05803321836445341,0.00784630215867911
517,6.66811151511672e-05,0.004264721787093478,0.049925074293121874,0.008165850546707702
518,4.4241788089232794e-05,0.003816861952437075,0.06899766718222455,0.006651450074174238
519,4.4672260904686184e-05,0.004590792172952773,0.05283654433600482,0.006683731061666508
520,3.936138739037903e-05,0.004116285661413363,0.03808844288540991,0.006273865426543573
521,4.3832477605181454e-05,0.004051027520405192,0.05894080983830019,0.006620610062915731
522,7.1021126181459e-05,0.005627352208929613,0.05086697904707993,0.008427403288169974
523,7.902043894251413e-05,0.005254006998877315,0.06729024489028923,0.00888934412330366
524,6.523504584540497e-05,0.004593886705261959,0.06632456674800569,0.008076821518729058
525,7.570996258900972e-05,0.005771758278574016,0.050010049474401796,0.008701147199594375
526,4.431917784413279e-05,0.0036886866994363075,0.0613298869649932,0.006657265042352788
527,7.079337315930163e-05,0.004836156154786151,0.054825883023203126,0.008413879792301565
528,5.700390291916855e-05,0.0039042682543914417,0.05227799447679038,0.007550092907982514
529,5.0901731093511135e-05,0.004378509928683565,0.049681099136438256,0.007134544911450951
530,6.639887793729092e-05,0.004763447868970532,0.050796649201806154,0.008148550664829316
531,8.247931161765924e-05,0.005686789726533929,0.04182956014345862,0.009081812132920307
532,2.6943695745249285e-05,0.0028255693450185354,0.04814274747462077,0.005190731715784301
533,4.453840426516168e-05,0.0033662325754565546,0.05759202951895959,0.006673709932650764
534,5.1691817767648e-05,0.0048034837086675195,0.054701019817653185,0.007189702202987806
535,5.403144333529633e-05,0.004153903028123735,0.05601113138089042,0.007350608364978763
536,5.504420735234168e-05,0.003362811035691444,0.08152039373652498,0.0074191783475221085
537,7.062585609297741e-05,0.005556191052573068,0.05561585975223693,0.008403919091291663
538,6.376008943277251e-05,0.004946639118029251,0.05374575049981711,0.0079849915111271
539,5.500457746435232e-05,0.004369957673629329,0.06742781718915314,0.007416507093258385
540,7.20877913270978e-05,0.004576541808032171,0.06075443923101753,0.008490452951821664
541,5.9363684485780685e-05,0.00479991385410474,0.05666951211947446,0.007704783221206166
542,6.674664837085557e-05,0.004991330833310457,0.0562822498599016,0.00816986220023661
543,6.49702137255979e-05,0.0044987711940829445,0.054055335928127946,0.00806041027030246
544,6.629311144192224e-05,0.004243426910160449,0.06616813982672998,0.008142058182174944
545,7.509275150087313e-05,0.004657092944395092,0.07596089347128743,0.00866560739364946
546,5.609002205938044e-05,0.004766989382654286,0.04493750340488534,0.00748932721006232
547,7.97752053614247e-05,0.005399137051710135,0.05441253545453861,0.008931696667566822
548,7.596696905886265e-05,0.00487868266313932,0.0726316427783944,0.008715903226795394
549,7.588680295743829e-05,0.005595090434505056,0.06003201807261416,0.008711303172168774
550,4.7386914443381636e-05,0.004819474048237649,0.04522747794288673,0.0068838153987001455
551,5.969891614041173e-05,0.004317440622616052,0.07864489084622628,0.007726507370113039
552,5.0412843414116966e-05,0.0045309162007525,0.04469642856004641,0.007100200237607156
553,5.18113860324615e-05,0.004757183313750679,0.05447707796007917,0.007198012644644441
554,4.6434653292949336e-05,0.004245993813152218,0.058374260555317914,0.006814297710912605
555,3.844750451683177e-05,0.002791532671590151,0.07615218229095966,0.0062006051734352086
556,5.9836692047413666e-05,0.005185658939863077,0.05215337267368625,0.0077354180266753034
557,5.236730561757762e-05,0.0042356488336264195,0.052666288798037364,0.00723652579747888
558,3.776210161278123e-05,0.0039032269014724354,0.05036561948427047,0.006145087600090084
559,6.132765852648937e-05,0.0035093339203671765,0.0688354506952693,0.007831197770870607
560,3.0764207795825996e-05,0.002991742219029131,0.04852214076564465,0.00554654917906854
561,4.9156666490792205e-05,0.0036716446336383483,0.06969055240340305,0.007011181533150598
562,3.1729003774512055e-05,0.003785026173123157,0.04346729370167435,0.005632850412935873
563,7.155611351527516e-05,0.004032350938327436,0.06451004807776872,0.008459084673608286
564,4.569511570843019e-05,0.0036121971023515553,0.05425690892005619,0.006759816248126108
565,7.470000143672991e-05,0.0042733777255947545,0.061193672099611796,0.008642916257648774
566,4.1744367702007337e-05,0.003997373882143271,0.04431830637694539,0.0064609881366558
567,6.037751468726615e-05,0.0040135151936661105,0.07080133003329259,0.007770296949748151
568,5.1523478235829174e-05,0.004211525605975265,0.06183046870941622,0.007177985667011934
569,3.5087410231212306e-05,0.0029362650698000325,0.056997645131192876,0.005923462689273232
570,4.560719875319292e-05,0.00417034091413597,0.09723507354005878,0.006753310207090495
571,6.091868154110925e-05,0.004436876582387704,0.057801569853431545,0.007805042058894286
572,5.621598880237246e-05,0.00406209235969808,0.05400638909740829,0.007497732243976975
573,5.286431026573399e-05,0.004069856296312851,0.05577136665369942,0.0072707847077006435
574,4.8579281208034814e-05,0.00316961461720351,0.07783685213753921,0.0069698838733535905
575,2.4173962982634284e-05,0.0034164621912202804,0.026743790444731186,0.004916702450081161
576,5.741646255935573e-05,0.004901220227953686,0.04191968627695086,0.007577365146233566
577,4.435699295941924e-05,0.004386757782704359,0.058058413927862595,0.0066601045757119295
578,8.316953648742954e-05,0.004798427892755473,0.05379153771551959,0.00911973335615844
579,5.501691593779124e-05,0.0048208998317577495,0.04465978562522266,0.007417338871710722
580,6.278953626569953e-05,0.004017733781795794,0.0705046914117129,0.007923984872884253
581,5.469446222391327e-05,0.004145774335546331,0.049015415176380195,0.007395570446146331
582,4.855736039640376e-05,0.0037253208497482738,0.06371977489324854,0.006968311158121703
583,7.212805471840237e-05,0.005984036061678223,0.05028795787145346,0.008492823718787623
584,6.847278301065979e-05,0.005131742188924757,0.04635351776534424,0.008274828276807861
585,2.9314346280655833e-05,0.002676045696590694,0.05487297149775383,0.0054142724608811045
586,5.331031551888455e-05,0.0042376169406452,0.06868407322248427,0.007301391341305037
587,6.551999009329039e-05,0.004226163465425385,0.06845552042925718,0.008094441925994018
588,4.762062766317177e-05,0.004181358978173831,0.05800224570850998,0.00690077007754725
589,6.161828833047087e-05,0.0038335601880839926,0.05737166647480807,0.00784973173621049
590,8.201187363514189e-05,0.006887562621952475,0.05712355789755641,0.009056040726230254
591,7.148909731121072e-05,0.005890480214843979,0.04978421110436826,0.008455122548562503
592,7.167892436015888e-05,0.00491516070909351,0.056966073396742714,0.008466340671161218
593,5.374388444067596e-05,0.0049541169685124965,0.03911870269294626,0.00733102205975917
594,7.443615247518134e-05,0.00477201398824468,0.057003346696726354,0.00862763887023448
595,6.694604276929613e-05,0.005601118665513432,0.05719610698451627,0.008182056145572195
596,3.680872035901838e-05,0.0036232033981596135,0.055950490558080546,0.006067019066973333
597,8.914604517971452e-05,0.004925932645796082,0.05720857515139777,0.009441718338295924
598,4.652701127433202e-05,0.00437802706008585,0.060594375120147426,0.006821071123682239
599,4.440864836985693e-05,0.004185569946977576,0.05961990512810367,0.006663981420281451
600,3.8903143939512636e-05,0.004018397390328451,0.05836919849116695,0.006237238486663189
601,2.5819282453031306e-05,0.003463630181699065,0.033669543142035074,0.005081267799775093
602,5.914180622304272e-05,0.004650602033491561,0.0494857166008722,0.00769037100685279
603,4.981103330024131e-05,0.004018007499159618,0.061724159427547276,0.007057693199639714
604,2.989924543014905e-05,0.0038710746475527683,0.034157618557294156,0.005468020247781544
605,4.9655818144341525e-05,0.004475672189858479,0.05737500931505579,0.007046688452339951
606,6.05034877346866e-05,0.004323179909910901,0.06955724075118308,0.007778398789897995
607,7.721883552435948e-05,0.00543785618833602,0.06222576968277327,0.008787424851704775
608,7.443449785570643e-05,0.004725928491160486,0.059479543234826515,0.008627542979070328
609,4.136513177440788e-05,0.004124802239386843,0.045906417598530425,0.006431573040431676
610,6.888895196978133e-05,0.005377077088843874,0.0547267630036572,0.008299936865409334
611,4.344360680063472e-05,0.003205103556468557,0.06259439188334959,0.006591176435252991
612,6.043543987292374e-05,0.004293965138919529,0.05916172741238768,0.007774023403162789
613,8.643822539460466e-05,0.00613176993184335,0.05396663744030383,0.009297216002363514
614,5.4404247672940394e-05,0.004522102465212563,0.05234150885370159,0.007375923513224639
615,3.2870724713619365e-05,0.0034567326404588736,0.055008553279835226,0.005733299635778607
616,6.946307242017113e-05,0.004673131617740399,0.057837003049958646,0.008334450936934646
617,7.349176693131776e-05,0.005292840265080618,0.05159226752239765,0.008572733923977649
618,6.669686999797649e-05,0.004980096910462756,0.04741668200758964,0.008166815168593944
619,7.961593377616756e-05,0.0052973111387659986,0.050883188496018805,0.0089227761249606
620,4.250967285410131e-05,0.003679904706687562,0.04359440232026213,0.006519944237039213
621,6.108063287606841e-05,0.004779871416922655,0.05290510812637561,0.007815409962124058
622,6.922637695742052e-05,0.0055180117806713225,0.04364623691616032,0.008320238996412294
623,5.767563664525095e-05,0.0044802039142607395,0.05925182335459289,0.007594447751169967
624,5.276325482613503e-05,0.004336789838024169,0.05103447036268832,0.007263831965714419
625,8.988067069916904e-06,0.0017881650710620325,0.027012779280975785,0.00423982713560748
626,7.317303799269094e-05,0.003843260007042387,0.07083321087013772,0.008554124034212407
627,7.354758106254661e-05,0.005322847998556136,0.06529551966961389,0.008575988634702478
628,4.8652757527455946e-05,0.004795862433283037,0.062340872237204525,0.006975152867676519
629,5.422203875649895e-05,0.004386771770188277,0.05138677432888583,0.007363561553793003
630,6.387384305593832e-05,0.004971640166447992,0.06501040010604392,0.007992111301523377
631,5.917443757549539e-05,0.006012567846209777,0.04144686677264309,0.007692492286346145
632,4.387292975042502e-05,0.004090319772223885,0.07258616348217894,0.006623664374832469
633,6.35802811111854e-05,0.004777117878724664,0.04740711861933011,0.007973724419064458
634,6.441607484788507e-05,0.0045021594947449416,0.060782942632488624,0.008025962549618843
635,7.943725805583137e-05,0.004855078713340219,0.06105146961918484,0.008912758162086002
636,5.9234715432801464e-05,0.00469033080175452,0.06713335851348945,0.007696409255802412
637,8.155014490352903e-05,0.00484958530293131,0.06391058628554536,0.009030511884911533
638,5.0242747736884235e-05,0.004043592769848838,0.055327465156803646,0.0070882118857215366
639,4.340555473813071e-05,0.0038165798723396,0.057838583355940054,0.0065882892117855845
640,6.056952151459554e-05,0.0045963228317709515,0.06729336234437044,0.007782642322154786
641,3.894394820860775e-05,0.0034605662223074706,0.05612444336876088,0.006240508649830355
642,6.68698648811465e-05,0.0054367186913563135,0.055669942394705685,0.008177399640542583
643,6.702151066285184e-05,0.004988787586867545,0.06479231265397889,0.008186666639289247
644,4.761233742669629e-05,0.0034401240592004303,0.06786745806622108,0.006900169376667211
645,3.8648592969411596e-05,0.0036560535274728343,0.044584154184452274,0.0062167992543921795
646,3.7287557014177096e-05,0.003957409378889463,0.03125862524947731,0.006106353823205537
647,4.6328415798064986e-05,0.003981872197113979,0.06115288977507882,0.006806498056861882
648,4.9480794901951595e-05,0.004033340034785393,0.058151475943319486,0.007034258660438288
649,5.555195444335042e-05,0.00514848216690874,0.059796426531096625,0.007453318351133932
650,5.586653984201071e-05,0.00385973254607071,0.0669839528876941,0.0074743922724198955
651,5.7080924775037135e-05,0.004589790124309733,0.05015620937947407,0.007555191908551149
652,7.463505672390965e-05,0.004288946187884754,0.0600511165318367,0.008639158334230785
653,7.03118378600075e-05,0.003985282115083552,0.06672291818908083,0.00838521543313032
654,4.545543013090788e-05,0.004288549669563674,0.07524295453803997,0.006742064233668164
655,2.5014209223758928e-05,0.0030090590766079068,0.057645626709692976,0.0050014207205311845
656,5.190214250464114e-05,0.0045148369710383525,0.06720761839187972,0.007204314159213262
657,4.139590916877359e-05,0.003704711434978194,0.04974330509916455,0.0064339652756891155
658,3.840477626647967e-05,0.004024080569272892,0.050456955655298064,0.006197158725293329
659,4.627495719093753e-05,0.004006105347396044,0.0633498929067487,0.0068025698960714346
660,5.804035394383075e-05,0.004183876990698319,0.06432674933770333,0.007618422011403027
661,5.415890374869338e-05,0.005041741962057426,0.052588629456638,0.007359273316618486
662,6.016259314277858e-05,0.005304104531872332,0.07620332694348081,0.0077564549339745395
663,6.943119299524085e-05,0.004414809078269775,0.06492523576260856,0.00833253820844768
664,7.026959298243964e-05,0.005152989450219222,0.056268701393435316,0.008382696044974982
665,3.028851721566825e-05,0.0030427412758403335,0.0491912412540878,0.005503500451137253
666,5.561331738949634e-05,0.004483642595499431,0.06192953892338349,0.007457433699973187
667,6.0675620377916394e-05,0.005114323341994073,0.04966557895816737,0.007789455717694022
668,5.1001955906079445e-05,0.00449593710038471,0.05237712680150963,0.007141565368046371
669,5.812790806269861e-05,0.0047841530781771386,0.05290213742004157,0.007624166056868004
670,7.242998967476824e-05,0.005864173607595046,0.06073368620209496,0.00851058104213615
671,7.895636932995168e-05,0.004842284363977194,0.05653847922492439,0.008885739661387271
672,6.305929120333638e-05,0.003769104658415328,0.05932964968809884,0.007940988049565096
673,7.978244777338065e-05,0.005559650470988303,0.053452829668669585,0.008932102091522459
674,5.2289708508896694e-05,0.004089142994419336,0.06262639816667981,0.00723116232074044
675,7.03751558729287e-05,0.0052356544722247335,0.06314979268938226,0.008388990158113676
676,5.722865547482745e-05,0.003929432854032922,0.06056499584160063,0.0075649623577931395
677,6.363348072545577e-05,0.004503129224733662,0.06255762923862829,0.007977059654124173
678,5.5032250201511755e-05,0.004453367951088911,0.049930116516291534,0.0074183724765956305
679,6.129336022400812e-05,0.004815611133592349,0.058625443101755215,0.00782900761425147
680,4.0941670205767836e-05,0.0037862906683395494,0.05040258295681166,0.0063985678245813415
681,3.711657581857121e-05,0.003806775495859708,0.042534935021846465,0.006092337467554708
682,6.74536448867504e-05,0.004043584922017318,0.06558974147743157,0.008213016795718241
683,4.7338721486332544e-05,0.004057870157106845,0.053983212988338636,0.006880314054338824
684,3.295156750944442e-05,0.0032044772557680073,0.05029363196065184,0.005740345591464351
685,5.110395037013012e-05,0.005066447500881727,0.04506712034456789,0.007148702705395546
686,8.38641631150393e-05,0.005677498091547731,0.05352560860677524,0.009157737881979293
687,3.269402458404436e-05,0.0034329018758387283,0.036453899109667454,0.005717868884824497
688,4.144523313798012e-05,0.003279696381778796,0.07381533329475243,0.006437797227156183
689,4.119285558435344e-05,0.003930714377036812,0.06362822737920437,0.006418166060827118
690,5.374385497412012e-05,0.00482617159146798,0.05811340778513863,0.0073310200500421255
691,5.532595760380827e-05,0.005331622475000629,0.04284235864789343,0.007438142080103591
692,3.9438914292465905e-05,0.003040145415324024,0.04488858121707995,0.0062800409467188645
693,4.7345648257633664e-05,0.0037633844978261885,0.062111555195702606,0.006880817412025504
694,6.65035358564578e-05,0.004722809399916461,0.06913478928228134,0.00815497000953759
695,2.2444024612423113e-05,0.002760995114275744,0.043585324258084146,0.0047375124920598245
696,6.42093146305315e-05,0.0046791796548786985,0.05586701983838083,0.008013071485424971
697,4.5847704812991854e-05,0.0030639404083708114,0.06313901713164327,0.006771093324788229
698,4.7623124744548114e-05,0.004525190252559727,0.05139961205775334,0.006900951002908777
699,4.8191683688256264e-05,0.004868061149154591,0.05912861106146927,0.006942023025621255
700,5.227791519332941e-05,0.004730170839290751,0.07531102045257931,0.007230346823861845
701,6.983344396638203e-05,0.004519673084899999,0.0625880347788983,0.008356640710619402
702,5.5662501597872745e-05,0.004999406591621821,0.07973228317859116,0.00746073063431943
703,4.86990988543109e-05,0.004091195793269954,0.04494544224345676,0.006978473963146271
704,6.259271234880806e-05,0.005254160653885075,0.06470688991369844,0.007911555621292655
705,2.2569449808276855e-05,0.0032947091877418623,0.03790272751042156,0.0047507315024400846
706,7.865177525046565e-05,0.004388639495092262,0.07277875385182853,0.008868583610163752
707,3.3760999441946855e-05,0.003514962555370937,0.06336172248728023,0.005810421623423435
708,7.501099811670057e-05,0.005049332509574668,0.0640066956468921,0.008660888991131346
709,7.253279520091178e-05,0.005423308075753233,0.051256120910410985,0.00851661876573743
710,5.7113569567652564e-05,0.005449837309914312,0.03668154267378965,0.007557352020890135
711,5.41188314022847e-05,0.003628479655189072,0.05480795974981767,0.007356550237868587
712,8.614828437478972e-05,0.006202029092180039,0.06085047585026082,0.009281610009841451
713,5.7953549149504663e-05,0.004856592125198115,0.057920004808594855,0.007612722847280344
714,6.490438033572564e-05,0.004945004408870913,0.07196576885853023,0.008056325485959788
715,6.518010684798908e-05,0.00412373084596767,0.06294607963829446,0.008073419774047968
716,5.3355975536184805e-05,0.0034886544710134066,0.07058390411609672,0.007304517474562207
717,5.7119021692080715e-05,0.004644938033566043,0.050288829189235607,0.007557712728867137
718,8.128256303176731e-05,0.0050812990135496155,0.05896369522811762,0.009015684279729754
719,6.905731894099152e-05,0.00420077694766884,0.06137599097966007,0.008310073341492905
720,6.270745125188028e-05,0.004029989011033468,0.06555534731798274,0.00791880365029213
721,6.194315393042097e-05,0.004944963309691172,0.06458874331230091,0.007870397317189295
722,4.3338055558094825e-05,0.004166411433395934,0.04219039129518931,0.006583164554991364
723,5.119241063783783e-05,0.004224863368665137,0.05583677961813782,0.007154887185542306
724,3.828216753519736e-05,0.0029980396192785482,0.0511271347964124,0.0061872584829791065
725,3.771691533986797e-05,0.0035884193318588948,0.052249765717965024,0.006141409882092825
726,6.601208688901514e-05,0.005461224591587549,0.062095395332993686,0.008124782267175829
727,5.7651399849505686e-05,0.00451300338866342,0.05258380267898999,0.007592851891714012
728,4.274785891049824e-05,0.004112655736743841,0.07191464368000489,0.006538184680054376
729,2.643391695613794e-05,0.00345218847952117,0.035131859379273545,0.005141392511386163
730,6.438849170264925e-05,0.004750120520005341,0.05912118791193133,0.008024243995707562
731,6.051714396634869e-05,0.005404524216581533,0.05256987556259385,0.007779276570886782
732,8.122422444067241e-05,0.004803326932486832,0.05072899505504669,0.009012448304465986
733,5.825759147917577e-05,0.004639910558938409,0.0708754753109353,0.007632666079370655
734,3.69600130453927e-05,0.004204581101484537,0.04084507963541917,0.0060794747343329205
735,3.313726757474902e-05,0.003352534460980598,0.05331831367892104,0.005756497856748386
736,5.941796903132388e-05,0.0045809790078341715,0.06441024521254368,0.007708305198376832
737,6.049221052391635e-05,0.005153530468046473,0.0568391362020515,0.007777673850446302
738,3.700222663501077e-05,0.003633099117431591,0.05595586941565989,0.006082945555815072
739,5.1633583047498294e-05,0.004761827988439409,0.06302427416583711,0.007185651191610809
740,5.655838111921518e-05,0.003737623936695052,0.06183313147809688,0.007520530640800245
741,7.313011001437033e-05,0.005048702532872845,0.05984957141104674,0.00855161446829603
742,7.180813202589945e-05,0.004729842784102145,0.086618476068681,0.008473967903284673
743,5.2817420583912735e-05,0.003533815046867824,0.0527994765289026,0.007267559465454166
744,4.475410314357985e-05,0.003254565900184546,0.04347717259149286,0.006689850756450359
745,9.425484340857907e-05,0.005193669112468107,0.06202532775298497,0.009708493364501955
746,5.1015400423780056e-05,0.00460701302780829,0.06046264998125883,0.007142506592491152
747,4.7021024918771334e-05,0.0031070963099266184,0.07474702681781586,0.0068571878287510294
748,4.58642351693007e-05,0.0032684974186106557,0.06441973026671843,0.006772313871144792
749,6.0968754934828934e-05,0.004659582252370501,0.06460658625561821,0.007808249159371658
750,6.293904401349889e-05,0.005372874763946847,0.059404825330781286,0.007933413137704225
751,6.238058436665886e-05,0.004733798522141201,0.06511771273948108,0.00789813803162861
752,5.422026839727736e-05,0.005016272831208452,0.0493765918187854,0.007363441342013728
753,8.286705368097295e-05,0.003925303895877072,0.0817868440450793,0.009103134277872217
754,3.4230055959723816e-05,0.003654218696495433,0.048753487384013416,0.005850645772880408
755,6.512049755484619e-05,0.004825604719653195,0.05208448438082558,0.008069727229271486
756,2.8012483586085878e-05,0.0029691532587526807,0.049755653408032785,0.005292682078689937
757,3.43529213762284e-05,0.00410280156508584,0.0460755907829955,0.005861136525984377
758,5.097513739083582e-05,0.005172729565947338,0.04314546733668312,0.007139687485516113
759,5.261528078247637e-05,0.0045362378265631454,0.058024674945927335,0.007253639140629757
760,8.507212465936947e-06,0.0016863239010745476,0.034022023032557455,0.004124854534631945
761,3.383654808225569e-05,0.003836708066716545,0.058658367207300444,0.005816919122891043
762,3.333174157171334e-05,0.003088043520890304,0.06275157201106119,0.005773364839650548
763,5.753866718363948e-05,0.004670213051068147,0.0632207160949205,0.007585424654140265
764,3.910436449988663e-05,0.003895271405075998,0.05244598465214256,0.0062533482631216405
765,4.6961607992056196e-05,0.004508185037690843,0.0581429760731047,0.00685285400341024
766,5.323349575346007e-05,0.0038739689828200426,0.06548842133313992,0.00729612881968648
767,6.617443917703993e-05,0.005060091199604881,0.054805867809048614,0.008134767309335869
768,4.681304436168441e-05,0.004461238776251408,0.053889743726641015,0.006842005872672445
769,5.890968483347449e-05,0.004490145152139631,0.06539485679956325,0.007675264479708443
770,4.537393477456366e-05,0.003962035854851046,0.05563980738939245,0.006736017723741769
771,5.570035281564622e-05,0.004661344000501397,0.05933116794951887,0.007463266899665711
772,5.546551464165396e-05,0.004505485618406205,0.06118141210923089,0.007447517347522819
773,6.901129324144439e-05,0.005619821146559682,0.0452439630879754,0.00830730360835837
774,5.87132779556528e-05,0.004968553467992243,0.046166535899008654,0.00766245900189047
775,6.160099333616006e-05,0.0041055257048859374,0.06367991588670563,0.007848630029257323
776,5.996339442231439e-05,0.004552800341312515,0.055365643231850115,0.007743603452031478
777,5.16231292094165e-05,0.0041267464692161,0.06023686901303105,0.007184923744161517
778,5.2428336358929174e-05,0.00408355684736085,0.048391135937217555,0.007240741423288693
779,5.932435677953028e-05,0.00526277146102873,0.057853979493400765,0.007702230636609748
780,4.7669456519737554e-05,0.004402804280589275,0.05840358880404439,0.006904307099176347
781,3.783178951213103e-05,0.003660812221996714,0.06824107395210027,0.0061507551985208134
782,4.81673557306341e-05,0.0036515358455676125,0.05712141632741785,0.006940270580505774
783,7.372013276970478e-05,0.003996399043811635,0.0721598864797981,0.008586042905186565
784,4.792450972515699e-05,0.004384719743483439,0.06112770450437477,0.006922753045223869
785,5.6969032621844356e-05,0.00446820905500589,0.0537144120652373,0.0075477832919237835
786,2.241461699373455e-05,0.002386289832289101,0.05821514907587577,0.004734407776452558
787,4.904684501890788e-05,0.004321359582592272,0.05715373587622352,0.007003345273432384
788,1.794241028388858e-05,0.002745861020332744,0.030847212433505078,0.0042358482366449835
789,3.744558319996979e-05,0.0032534611331454,0.0447379522243736,0.006119279630803724
790,7.909045974673579e-05,0.00479758719147402,0.058939801278532045,0.008893281719744123
791,5.951538165913794e-05,0.004820584461185738,0.05851088701841611,0.007714621290713993
792,4.82788185972057e-05,0.004355655464759708,0.06322160198630278,0.006948296093086792
793,5.53638322450139e-05,0.004618240484438671,0.05551768086201481,0.0074406876190990295
794,3.543607854248464e-05,0.0034946687308592896,0.04204285972686206,0.005952821057488982
795,5.27698341157672e-05,0.005013824500443866,0.044246441221607036,0.007264284831679355
796,4.6879979774799686e-05,0.005126766794877187,0.033069216847667615,0.0068468956304882575
797,5.279099721216858e-05,0.004943900991300978,0.049691082303843004,0.007265741339475843
798,6.281096352105083e-05,0.005803546853860395,0.035141669886822546,0.007925336808051145
799,5.637607662386937e-05,0.004791681903445634,0.07035950760754628,0.007508400403805649
800,6.079780441045889e-05,0.00464292645769114,0.059120689783699554,0.0077972946853674075
801,3.922329496472318e-05,0.004166137304004555,0.04894213000100267,0.006262850386582998
802,4.9614452119400955e-05,0.004997101645229694,0.04796957975381333,0.007043752701465363
803,6.586063937991466e-05,0.005425746951521351,0.05182038341208284,0.008115456818929792
804,5.3645579285830254e-05,0.004023093424862422,0.054340053729064586,0.007324314253623335
805,6.347722396401567e-05,0.005363013996176068,0.04067020699570323,0.00796725950148576
806,7.773189691453531e-05,0.003844517380255672,0.06366179124756499,0.008816569452714265
807,5.087811670128942e-05,0.004797888225422569,0.051473666259034045,0.0071328897861448175
808,7.719020071857075e-05,0.004484361676717559,0.055383260923014925,0.008785795394759103
809,5.59127944130493e-05,0.003600556490188697,0.053780639673172814,0.007477485835028288
810,7.814813628903131e-05,0.004243009208837375,0.08034666286198977,0.008840143454097935
811,5.0932981824181906e-05,0.004358284638879369,0.055722241253944316,0.007136734675198561
812,6.164802814321714e-05,0.0041604054652876294,0.06585541788319582,0.007851625828019095
813,4.906128452196007e-05,0.004058029635821897,0.05947040726984398,0.00700437609798043
814,6.868403463255878e-05,0.004111015801016541,0.05362409504157961,0.00828758315991812
815,3.165928508753166e-05,0.0033633306515638423,0.05273967124619028,0.00562665842996814
816,6.11829674418002e-05,0.004034435325295402,0.06377828592224322,0.007821954195838796
817,4.2784614710007345e-05,0.004269426364037852,0.05137826644249288,0.00654099493273058
818,4.746483294754897e-05,0.004743510573282217,0.05960745185346994,0.006889472617519321
819,6.756652092443751e-05,0.004860873354197419,0.06589285577777648,0.008219885700205133
820,4.558380638584196e-05,0.0038744870626989,0.053942055504544006,0.006751578066336918
821,4.812201065075573e-05,0.0041657003242953,0.06378234882636491,0.006937003002071959
822,7.740446309132861e-05,0.005314857123362254,0.05680778022635913,0.008797980625764536
823,4.135693554093583e-05,0.003892503770103041,0.06811272449585548,0.006430935821553144
824,2.267695244584986e-05,0.002483263985993301,0.0686238399158805,0.004762032386056357
825,6.526489714508732e-05,0.0043782462862670245,0.06631392226025906,0.008078669268207906
826,3.8018502846221646e-05,0.003395735418428637,0.06470955026281944,0.006165914599329228
827,5.454999618298603e-05,0.004326083099084652,0.05297438202831706,0.007385796922674332
828,3.4810941706007045e-05,0.0037005002748648694,0.05069156861496893,0.005900079805054057
829,8.519696036730544e-05,0.004380334654665953,0.06727121069070918,0.009230219952271178
830,5.3424034928194575e-05,0.005111481937999649,0.04654665189132956,0.007309174709103223
831,6.305353263467804e-05,0.0053670972585463834,0.047728436000124,0.007940625456138687
832,3.539819524630527e-05,0.0031604796417544815,0.05493490546701496,0.005949638244994797
833,7.063503961457912e-05,0.005054840174564055,0.0499928520880788,0.008404465456802034
834,4.8762135304590345e-05,0.004652673312765377,0.053962725162160385,0.0069829889950214
835,8.01704755323241e-05,0.005643608147116975,0.0554880375348763,0.00895379671046442
836,5.003313999760308e-05,0.004818249831673839,0.048331619565253,0.007073410775404096
837,3.330839989198116e-05,0.003346203409342391,0.07827762936245897,0.005771342988592942
838,5.3846197257427785e-05,0.003394895782272287,0.05860928360084561,0.007337996815032535
839,4.618334513145261e-05,0.004052606663651476,0.05057967758841597,0.006795832924039
840,7.04137195210335e-05,0.004278189617970367,0.06046728552760661,0.00839128831116135
841,6.629570369038923e-05,0.005341279840741621,0.04450851743096429,0.008142217369389523
842,6.482358960709821e-05,0.004118769518241381,0.06083892274606817,0.008051309806925694
843,6.562257949031842e-05,0.004724931824622225,0.06864877946468928,0.0081007764745312
844,5.908131763883464e-05,0.0038596478719083267,0.06583340726627762,0.007686437252644063
845,4.023443124064873e-05,0.004610531103934885,0.04789806851210887,0.00634306166142568
846,8.130995563015852e-05,0.005639275042690126,0.046672858306276765,0.00901720331533883
847,5.182168208083785e-05,0.004579227903839325,0.04206831847119008,0.0071987278098868054
848,4.119280265437846e-05,0.004361520151949692,0.04390877337941057,0.006418161937375699
849,4.8398280761211256e-05,0.0035773692673992737,0.06260814849356411,0.006956887289672801
850,6.438098291099911e-05,0.004659756245799637,0.062358148053301754,0.008023776100502734
851,7.225662986210935e-05,0.005982775281140613,0.04108403583667308,0.008500389982942478
852,4.183990109473319e-05,0.003208229821610006,0.059287080284709415,0.006468377006230613
853,7.571511070152992e-05,0.005441731030052634,0.060981665085242165,0.008701443024092568
854,6.428541814982829e-05,0.004435970686106467,0.06232694035261965,0.00801781879003432
855,5.712394887235921e-05,0.004342538559528718,0.06631489893962739,0.007558038692171325
856,5.969498108368532e-05,0.0041901517263753475,0.061734989527233,0.007726252719377276
857,4.875921197538881e-05,0.0044185602168780825,0.047981404929848814,0.006982779673982892
858,4.726347159278795e-05,0.004578731638112513,0.06647815835892468,0.006874843386782521
859,6.983471143896146e-05,0.005216293419512376,0.0506424783282684,0.008356716546524747
860,8.178045522160643e-05,0.0037853882444336194,0.06773066047926524,0.009043254680788633
861,4.852546201148331e-05,0.0046707404509307975,0.03970371696292618,0.006966021964613875
862,6.672057461438282e-05,0.004615796957877092,0.04886725235343081,0.008168266316323312
863,2.8377868582552555e-05,0.003865680955285492,0.03727156245973129,0.005327088189860586
864,3.286131526630055e-05,0.003541103796325293,0.054108751701611,0.0057324789808860434
865,4.909553646510677e-05,0.0038594175003710137,0.05460309163594124,0.007006820710215618
866,3.965781580323033e-05,0.0034855206492009822,0.054062381479403676,0.006297445180645099
867,5.308347150828002e-05,0.004620255560519566,0.05575268217278473,0.007285840480567738
868,4.590243143964146e-05,0.0036181497220066907,0.05775231850633178,0.006775133315267019
869,6.310345748948268e-05,0.004481917102417542,0.060970207394344667,0.007943768469025399
870,4.6166395063558505e-05,0.004692625858113909,0.054733818797237266,0.006794585716845279
871,4.648533995119643e-05,0.0033660075378523706,0.04912543019207405,0.0068180158368249645
872,7.766768165580583e-05,0.005382877873450122,0.05973362567687168,0.008812926963035905
873,6.431379041077526e-05,0.004612853688140941,0.06166370623854611,0.008019587920259664
874,6.989201841774213e-05,0.004855047847228193,0.06287765844044291,0.008360144640958153
875,5.9818040936731776e-05,0.005226888571147746,0.05842445634637272,0.007734212366927308
876,7.170039811722958e-05,0.006006118832989595,0.05217771678062788,0.008467608760283452
877,5.719345963036617e-05,0.004224050642288299,0.06663061525553715,0.007562635759466785
878,5.04756768512818e-05,0.004483811887439193,0.06149706452758452,0.007104623624885512
879,6.187391052554791e-05,0.004296993597916555,0.06213273656264903,0.007865997109429177
880,4.9198543928932e-05,0.0038908211006256637,0.0434627831581933,0.007014167372463498
881,5.326124230929674e-05,0.00443584423645946,0.05260574160320175,0.007298030029350127
882,3.9087271909550364e-05,0.0037141391633506394,0.05770913928954213,0.006251981438676071
883,4.7660889492885944e-05,0.004776952981271499,0.054619095024722064,0.006903686659523687
884,6.283591895070403e-05,0.004487370685503266,0.055558938027054694,0.007926911059845658
885,7.830994792605705e-05,0.004818383165462297,0.06510399419850943,0.008849290814865133
886,4.409528830830798e-05,0.004173661171341148,0.05649879487480147,0.006640428322654168
887,4.4135805551738206e-05,0.004469304097761168,0.042389952915618645,0.006643478422614004
888,4.187583430204175e-05,0.003082696743261982,0.05894256479219129,0.006471154016250988
889,6.499182729232254e-05,0.004794680577676644,0.05741123733355735,0.008061750882551608
890,7.131339817252871e-05,0.004364635136397982,0.06386890536289203,0.008444726056689379
891,6.68701057324878e-05,0.004119243355420793,0.04658629017731142,0.008177414367175416
892,5.03209020309001e-05,0.003881725535111132,0.05868401785114208,0.007093722720187164
893,7.027172590982064e-05,0.005481477292999103,0.056580300717204324,0.008382823266049461
894,5.5075932398175504e-05,0.004432013446819093,0.045657459739235406,0.007421316082621377
895,5.263830285419484e-05,0.004448047018474458,0.05330023762322078,0.0072552258995977805
896,6.529507128238268e-05,0.004310513927121678,0.0640820469144413,0.008080536571440162
897,5.809174754653353e-05,0.004467398682851632,0.05633691072403435,0.007621794247192273
898,6.043953573242281e-05,0.005139200853401701,0.05247370342371793,0.007774286831113359
899,5.9787761570249716e-05,0.005114375373444541,0.046461401485921705,0.007732254623992234
900,2.9829602403350786e-05,0.0038242889709554843,0.04507202792958198,0.005461648322928767
901,7.702092343126035e-05,0.005151479057408547,0.07076309329303054,0.00877615652955551
902,4.477686840697765e-05,0.004382431409624752,0.057299028390075835,0.006691552017804034
903,4.787043136442142e-05,0.004697955656538238,0.0607627442112568,0.00691884610064574
904,6.259551499047802e-05,0.00393315274774001,0.05769503336955174,0.0079117327426094
905,8.529135077119605e-05,0.004294275078789797,0.08038489496509982,0.009235331654639993
906,3.860772486566169e-05,0.0036215028894342953,0.04923950578853953,0.00621351147626374
907,5.155883953470184e-05,0.003558540971811156,0.06577461849897476,0.007180448421561238
908,5.041312423924481e-05,0.004652073363124076,0.0611924146586329,0.007100220013439331
909,7.696771597182588e-05,0.0051526481167850436,0.05896730975411213,0.008773124641302268
910,3.833779292442706e-05,0.004100847203874716,0.05092075590340617,0.006191752007665263
911,5.8511677935180937e-05,0.004860553976717397,0.04895716116638127,0.007649292642799093
912,3.884950672831477e-05,0.004462619951093868,0.04365675835816152,0.006232937247262655
913,7.13064597341166e-05,0.0046585854200249495,0.055752860550607686,0.00844431523180631
914,6.323547262923948e-05,0.0056783206172479304,0.056271193626408866,0.007952073479869166
915,6.864893132146595e-05,0.005563503131344396,0.05215896639067108,0.008285465063680192
916,4.345802401919719e-05,0.004454625627151953,0.05490424919133696,0.006592270020197641
917,8.125149033434044e-05,0.005574858562662261,0.05704901470820545,0.009013960857155978
918,5.4612291416632204e-05,0.003998205806229304,0.04868792008957623,0.007390012951046265
919,6.901607711997061e-05,0.0056718142068689645,0.05556526957369101,0.008307591535455386
920,3.515651347786739e-05,0.003825248584202039,0.050107460579504215,0.005929292831178704
921,5.505400040998365e-05,0.004649175156188556,0.053742075249491705,0.007419838300797612
922,4.9983696269071694e-05,0.004086312534032771,0.05931666279910887,0.0070699148700017
923,4.8420809020077636e-05,0.004813470455635025,0.05118062913105592,0.006958506234823452
924,5.99520972408135e-05,0.00444815147403978,0.055511491483830715,0.007742873965189736
925,5.245896715972832e-05,0.0037173103228390243,0.05536647157251906,0.007242856284624726
926,6.36404120319275e-05,0.005063312114301495,0.07705634098495029,0.007977494094759762
927,7.14122414815991e-05,0.005653140161627503,0.050327379597876476,0.008450576399370554
928,7.74035895354572e-05,0.005405581296768323,0.05751707137300688,0.008797930980375821
929,6.648492108058439e-05,0.004961761961188671,0.06641045204887441,0.008153828614864538
930,4.498782090816341e-05,0.0048243988290670205,0.038952506184410075,0.006707296095161079
931,5.1622900822113235e-05,0.0045061371508729655,0.055375484213834536,0.007184907850634732
932,4.293831500841154e-05,0.004206635739040586,0.05740758998854689,0.006552733399766185
933,6.670409881939957e-05,0.004977194928864229,0.0524665640987485,0.008167257729458468
934,5.4504298197732544e-05,0.0040054269855292835,0.05701011476162998,0.00738270263506069
935,5.071880426486677e-05,0.005354004445817071,0.04988183355536746,0.007121713576441164
936,7.861457876470324e-05,0.00477077196016704,0.06816977829054593,0.00886648626935735
937,4.8986243272288905e-05,0.004614713438274611,0.05089156373328252,0.006999017307614597
938,7.654579010515112e-05,0.003736979136424569,0.086502773465015,0.0087490450967606
939,6.667337320179948e-05,0.00523351642491768,0.05527454436988144,0.008165376488674537
940,6.172164026401692e-05,0.0041720380398236594,0.05387901949696544,0.007856312128729129
941,6.875509553769669e-05,0.006611628996891389,0.05426536873767418,0.0082918692426796
942,4.841410162008895e-05,0.0041256029221394385,0.07537539682982874,0.006958024261246053
943,6.54980179808967e-05,0.004055820528236204,0.06310681240076821,0.00809308457764381
944,5.2626746090726866e-05,0.0039013309023214738,0.061674775032340534,0.007254429411795711
945,4.9829617998087065e-05,0.0038141620493534123,0.04449942529508499,0.007059009703781875
946,5.323526678643127e-05,0.004057604725541611,0.05991803541144236,0.007296250186666497
947,3.290687776648181e-05,0.0028921467310718367,0.06278145009772253,0.005736451670369201
948,5.296681741669747e-05,0.003833018642091748,0.06517387175677003,0.0072778305432798255
949,3.190879292971705e-05,0.0036409186450040666,0.058471246948522904,0.005648786854689855
950,4.0614777955774556e-05,0.003605339738481202,0.07664040163113017,0.0063729724584195655
951,5.814307926972589e-05,0.004357987907354238,0.0631247234900254,0.007625160934021364
952,4.6942254594087585e-05,0.0036378948736038494,0.06352617419667189,0.006851441789440173
953,6.269580068495049e-05,0.006414723059015594,0.037310860644077806,0.007918067989411939
954,4.352137115691546e-05,0.0036660061927692718,0.06789512050080249,0.006597072923419512
955,3.2892913474024344e-05,0.004105682585979067,0.042810820850648135,0.005735234387017144
956,3.350546131510981e-05,0.003644565120843534,0.03701349262861431,0.005788390217937078
957,7.345938737335227e-05,0.0052472263855127856,0.07130512459448868,0.00857084519597406
958,3.701296144771075e-05,0.0033953678066165065,0.04261545027790023,0.006083827861446317
959,7.567700294887842e-05,0.006547105948866597,0.04911326088084578,0.00869925301097041
960,4.156901746363288e-05,0.0037488716390115034,0.05789849895003929,0.006447403932097983
961,4.2025425205506396e-05,0.004511287204837235,0.058025460996200096,0.0064827019988200965
962,6.440056021527553e-05,0.005488504546291189,0.04528921935297037,0.008024995963567542
963,5.4713081653077274e-05,0.0037447916625327642,0.06682373478312886,0.007396829162085394
964,4.821330655962301e-05,0.003593448259458361,0.06598717537049326,0.006943580240741998
965,7.714741299822553e-05,0.006729570804302845,0.04499954059589406,0.008783360006183545
966,4.650515611960619e-05,0.00425809370898408,0.07445439548621335,0.006819468903045599
967,5.602576887032164e-05,0.003921812976067842,0.07522647014611528,0.0074850363305946094
968,6.478880552382342e-05,0.004942066919371045,0.04880270615084781,0.008049149366474866
969,6.0006263092727814e-05,0.004934296368967967,0.059876693238569034,0.007746370962762336
970,5.46154870936444e-05,0.005253221817715093,0.0525142708664339,0.007390229163811091
971,2.7993850875110924e-05,0.002898177474675964,0.05155706394471071,0.005290921552537949
972,5.845809021776679e-05,0.005485972419424163,0.04951852689360203,0.007645789051351468
973,4.368652380918602e-05,0.003801557213836174,0.05251130742830523,0.006609578186933386
974,7.064854798976357e-05,0.004956369092697095,0.056707003389412924,0.008405269061116542
975,6.324948096156821e-05,0.004125025167055526,0.05847399370366324,0.007952954228559832
976,5.8921191650688504e-05,0.004533046589584096,0.08061783740173478,0.00767601404706167
977,7.143242271678197e-06,0.0011577028023043523,0.02812619312422271,0.003779746624227128
978,5.5879263251352945e-05,0.00457402277101241,0.05793080000493567,0.007475243357333082
979,5.70488706327207e-05,0.004742763757305867,0.05749787481051838,0.007553070278550312
980,6.374958081135504e-05,0.00488797140560919,0.05878200731733596,0.007984333460681276
981,1.6087248491648763e-05,0.002318266255098461,0.03710239878381216,0.004010891234083593
982,5.690032395056648e-05,0.004699674894226077,0.06196567391904795,0.007543230339222424
983,3.4917252215896596e-05,0.004210761538518277,0.03457118004723658,0.00590908218049947
984,7.885193136945973e-05,0.004756477125707601,0.0615788065238716,0.008879860999444723
985,5.563377027428181e-05,0.0038846165612010323,0.05659325652841185,0.0074588048824380205
986,4.0031954085872607e-05,0.004383713824191456,0.04578486105099444,0.006327081008322284
987,3.0369363981875862e-05,0.003449572778284436,0.04934610164843445,0.0055108405875942
988,5.889492303000316e-05,0.005001367065575785,0.04312964097992866,0.007674302771587958
989,5.0948680234233423e-05,0.005149456902020916,0.058067697589608516,0.007137834421884067
990,6.196162920251591e-05,0.00465144689720953,0.05729312548689536,0.00787157094883322
991,3.577605079482352e-05,0.0032794248732555577,0.034122813406347596,0.0059813084517372226
992,4.052772026246606e-05,0.0035864779148828962,0.0490250763839416,0.006366138567645677
993,7.71186354959039e-05,0.00569892182889383,0.05838315913044223,0.00878172167037326
994,7.394939328304077e-05,0.005425250849469807,0.06926323820911429,0.008599383308298354
995,2.4929667058611318e-05,0.003454112583138325,0.0293378027259239,0.004992961752167858
996,2.705708947942938e-05,0.003400406029266357,0.041071663735290365,0.005201642959626243
997,6.946180351555348e-05,0.005236116479362414,0.051806270322915626,0.008334374812519118
998,3.64034187749909e-05,0.004070547100504545,0.0632559272328832,0.006033524573165394
999,2.668943578013189e-05,0.002798764775203719,0.05447612640084731,0.005166181934478476
1000,5.983366750932226e-05,0.005420585308542188,0.05694611109074976,0.007735222524874241
1001,4.4887588630207455e-05,0.004144795408246869,0.0522407253668119,0.0066998200446136665
1002,5.137201298216016e-05,0.003771238788431267,0.06393444429291018,0.007167427221964648
1003,4.035114809028729e-05,0.004333005190969449,0.04726278589983979,0.006352255354619107
1004,5.600506284059561e-05,0.004495800651116547,0.056933012353356016,0.007483653041168793
1005,5.79328877517762e-05,0.00490177060486437,0.06192763827860848,0.0076113656955749745
1006,5.01783779241064e-05,0.004341485669240705,0.05357317879977641,0.0070836698062590395
1007,5.542355052618295e-05,0.004136519542455701,0.05974605056023474,0.007444699491999833
1008,5.5273162910388986e-05,0.004358755318335945,0.05009056616984242,0.007434592316353895
1009,7.300403491382016e-05,0.004699357846848839,0.08032474509823029,0.00854423986752593
1010,6.813413472343604e-05,0.0042825521771348895,0.11309758019932126,0.00825434035665087
1011,4.554731401373028e-05,0.003964885062168255,0.05096195739960174,0.00674887501838119
1012,5.715427072222186e-05,0.004430820634275669,0.06007700533164645,0.007560044359805129
1013,4.328548739083133e-05,0.004072946893782661,0.04343242991969021,0.006579170722122277
1014,6.147609739641498e-05,0.005338525791315075,0.047893897538347385,0.007840669448230449
1015,5.918078149949557e-05,0.00398807481156868,0.06167587001578129,0.007692904620460025
1016,6.560361595254301e-05,0.004761538267788059,0.04731100677763678,0.008099605913409767
1017,5.2980704489479995e-05,0.0033938024659130386,0.06643439581644284,0.007278784547538112
1018,3.50248187803105e-05,0.0032960084226186914,0.06078279485548865,0.0059181769811581355
1019,6.623708291530885e-05,0.005127635699254756,0.05121105738633558,0.00813861676916345
1020,7.020853137774082e-05,0.005553187719638538,0.05007984172366231,0.008379053131335325
1021,4.675587898552144e-05,0.0042940025355813075,0.05284427946255166,0.006837827066073029
1022,4.7060651762624285e-05,0.004654111059967038,0.04760513770099095,0.006860076658655044
1023,6.494139387214069e-05,0.004802193070585267,0.06576076037722145,0.00805862233090372
1024,4.7366599624905095e-05,0.0031818658442170984,0.04750672108228837,0.006882339691188195
1025,3.2091969280460014e-05,0.003763807281441167,0.027569503504471182,0.0056649774298279075
1026,6.897688488645655e-05,0.004718129436731281,0.050137918721674446,0.008305232380039475
1027,4.267795862990134e-05,0.003469176994974288,0.04912598796393006,0.006532836951118649
1028,4.7676171315894924e-05,0.004467667314577656,0.07138122922903944,0.006904793357943066
1029,7.870915956672695e-05,0.004379194349730038,0.06601294285128967,0.008871818278499975
1030,6.0538721591902464e-05,0.004100812328183286,0.06314490893503627,0.007780663313105242
1031,3.508022507848237e-05,0.003839989670715396,0.04250956615359147,0.005922856158854637
1032,4.828609312877102e-05,0.004410939695010238,0.061408276283811514,0.006948819549302622
1033,4.607801528485321e-05,0.004304705232523086,0.04718383887264643,0.006788078909739694
1034,4.126350642386405e-05,0.003540796914114358,0.04786290325895948,0.006423667676947788
1035,5.2083627956506634e-05,0.0036491618029577608,0.06304964952330239,0.007216898776933632
1036,5.04335278735417e-05,0.003538470298552764,0.056270771805824626,0.007101656699217546
1037,3.737719070489016e-05,0.003587444400846146,0.040741274542370975,0.00611368879686313
1038,3.99993410414349e-05,0.0033005643053453044,0.05394279153315562,0.006324503224873455
1039,6.554996879141823e-05,0.005106091692727065,0.046295539892842186,0.008096293521817101
1040,6.838886690873922e-05,0.0052490213928270725,0.04655946553150159,0.008269756157755725
1041,6.0374890487122945e-05,0.0044865018674589245,0.05988955021999676,0.00777012808691867
1042,6.665567411822106e-05,0.005464266437798894,0.0479685864698971,0.008164292628159554
1043,7.044898463366884e-05,0.005321317914713747,0.06375849778192277,0.008393389341241616
1044,5.581845202479033e-05,0.0037667211508413127,0.07141464291338862,0.007471174741952544
1045,6.455007279083198e-05,0.004726694812583653,0.055137402954551495,0.008034305993104264
1046,4.937220574707819e-05,0.0045679929881693605,0.05690564448995694,0.007026535828349397
1047,5.068128140796627e-05,0.003721821052071984,0.06904952296694433,0.007119078690951929
1048,8.141496757736902e-05,0.004389150799419866,0.07308336438124341,0.009023024303268207
1049,5.71738039820542e-05,0.004750298387105109,0.05639164236059746,0.007561336124128697
1050,5.341842728104499e-05,0.004934907115344543,0.06879325196918873,0.007308791095731536
1051,7.194564454756131e-05,0.005870637369142948,0.04829292841921129,0.008482077843757431
1052,5.852248952169963e-05,0.005058181780009553,0.04407715617792318,0.007649999315143705
1053,5.5132672624510065e-05,0.003913426018853938,0.056522849786682094,0.007425137885892052
1054,6.893022736641541e-05,0.00487361790516703,0.05542490744820583,0.008302422981661122
1055,4.35475412728907e-05,0.004470596497195087,0.0494647899327757,0.006599056089539648
1056,5.834989595963583e-05,0.004842334820622083,0.0690764536956775,0.007638710359716166
1057,6.913658137578753e-05,0.004761200449962923,0.04992485664984514,0.008314841031299815
1058,6.9491789153612e-05,0.004867424740252694,0.057982832816600105,0.00833617353187969
1059,2.3135779598209174e-05,0.0037074334684344327,0.028109997884933513,0.004809966694085203
1060,4.98813076957825e-05,0.004839497033137875,0.04555192991179435,0.007062670011814395
1061,5.735130894287425e-05,0.004345681441986456,0.052744035739870576,0.007573064699503991
1062,4.9331833609640564e-05,0.00451994326413845,0.04811445162814065,0.007023662407152002
1063,4.196972707581283e-05,0.004454643173439123,0.05167069165979754,0.0064784046705815175
1064,7.9099925787844e-05,0.004903045076845019,0.0703329519022784,0.008893813905622489
1065,7.797026539797611e-05,0.004074376017431154,0.058047000788967296,0.00883007731551518
1066,7.460984191935296e-05,0.005396328942942978,0.05214083796282787,0.008637698878714881
1067,5.17358564624439e-05,0.003716764411772535,0.060922759932652504,0.007192764173976737
1068,8.543391821860782e-05,0.0053913870874261255,0.07092731935611696,0.00924304702025295
1069,3.233328955451747e-05,0.003978833280116239,0.047147344888843534,0.0056862368535365426
1070,4.295437096077885e-05,0.00356575851671204,0.05604431001296484,0.006553958419213423
1071,6.897584802280464e-05,0.004926659159025335,0.05024373536053561,0.00830516995749058
1072,2.7973660228722223e-05,0.0030511832869715705,0.04884932998847091,0.005289013162086293
1073,4.4620860676468954e-05,0.004557390381061445,0.06221302552482441,0.006679884780179117
1074,5.28446021514238e-05,0.00452031830633495,0.05682446151058773,0.007269429286499979
1075,7.505366235152234e-05,0.00466062169006668,0.06443453094560025,0.008663351681163705
1076,6.171791894245626e-05,0.005411859185580308,0.05522988494734005,0.007856075288746654
1077,5.1621933470192805e-05,0.0044035821675088935,0.04428432572606544,0.007184840531994604
1078,5.043584609853768e-05,0.0034958564972854926,0.07307665139081965,0.00710181991453862
1079,8.751465929558864e-05,0.004836457108699793,0.06061731748816951,0.009354927006427576
1080,5.0638444957564906e-05,0.0041636183572852994,0.0629935417509313,0.0071160694879662595
1081,6.309986450955975e-05,0.0051002604771808345,0.051920184841212746,0.007943542314959948
1082,5.3524257809904695e-05,0.004489527166252138,0.058809339600633476,0.007316027460986195
1083,3.983218223890327e-05,0.0046232071278104,0.04487463775349099,0.006311274216741243
1084,5.306151085781909e-05,0.004315670688791382,0.05397842140735509,0.007284333247306753
1085,6.430152586078002e-05,0.004823128076152635,0.06685179681152409,0.00801882322169404
1086,6.774538907020343e-05,0.0055762425033522595,0.04892623770211513,0.008230758717773432
1087,6.493152869816673e-05,0.0046915607335827805,0.06570141221148806,0.00805801021953722
1088,3.570949853548835e-05,0.0038961098572511538,0.0467622016980358,0.005975742509135427
1089,3.431420721826738e-05,0.0034461256545339023,0.06527053421866125,0.005857832979717582
1090,4.315704504127614e-05,0.003542522876613636,0.06661182483688499,0.006569402182944469
1091,6.79488577386753e-05,0.004760025389770557,0.06236087940030188,0.008243109712885935
1092,3.546567926178349e-05,0.004462622104414348,0.02318877320671975,0.005955306815083784
1093,3.364802542989143e-05,0.003145066804272873,0.042234780134339456,0.005800691806146158
1094,6.0808919791029994e-05,0.004012649621996144,0.06644685467876865,0.007798007424402061
1095,7.581213119609062e-05,0.0050278231727342955,0.06597943137906692,0.008707016205112394
1096,6.434742843099745e-05,0.005119219478011068,0.052005409693951066,0.008021684887291247
1097,6.724292528853074e-05,0.004445733435179652,0.058290016350116214,0.008200178369311884
1098,5.213498225124276e-05,0.004663060469962675,0.05517983500179735,0.0072204558201849145
1099,5.226462049650148e-05,0.004144383680072248,0.05748913546541701,0.00722942739755376
1100,5.5205623513900874e-05,0.0045935274120396784,0.05421652786308462,0.007430048688528253
1101,5.855103512359686e-05,0.005595947299624523,0.04688979144977723,0.007651864813468441
1102,4.397308933173047e-05,0.0044587609382918695,0.04276837902969355,0.006631220802516702
1103,4.1321095112896264e-05,0.0037599134074282896,0.06416746493827574,0.006428148653609045
1104,2.9875923118310424e-05,0.002660462536370807,0.06956720364809321,0.005465887221514026
1105,3.672892428873754e-05,0.004362079097294364,0.047265668687854756,0.0060604392818291025
1106,6.841987282693177e-05,0.004913917142368597,0.05648321739628326,0.008271630602664205
1107,5.207905660118907e-05,0.004719829899198461,0.054312668283783117,0.007216582058092932
1108,6.359786519597088e-05,0.004989841832116054,0.06147038549200623,0.007974826969657105
1109,6.42579450061457e-05,0.0041688291899708695,0.05092923309580666,0.008016105351487439
1110,4.7189266158483374e-05,0.0046627994718601165,0.05217205374615874,0.006869444384990903
1111,6.0501611522516716e-05,0.004312678567427109,0.061026006243818376,0.007778278184953031
1112,7.962649289267157e-05,0.004768754854378588,0.06843971913054758,0.00892336779992123
1113,6.608353481545914e-05,0.004324142893293087,0.06151696290367381,0.008129177991375176
1114,5.353736768287862e-05,0.004041697443809433,0.06052521306085645,0.007316923375495886
1115,5.8338573245758075e-05,0.004966846817227529,0.05250713826455078,0.007637969183346944
1116,7.093633143239811e-05,0.0049264319886914145,0.06730298395200496,0.008422370891405686
1117,4.985319295552875e-05,0.0038377744481909353,0.049187736617227085,0.007060679355099514
1118,6.093833714044082e-05,0.004329099543080938,0.06906447812651972,0.007806301117715125
1119,4.330833175522293e-05,0.0037693779388848943,0.05927641154807775,0.006580906605872969
1120,8.448575567011256e-05,0.004556572787105631,0.06090744522011349,0.009191613333365989
1121,4.207670478949925e-05,0.004244793511331156,0.04872345390401167,0.00648665590188804
1122,7.26515377368169e-05,0.004431522417151096,0.05574029398846836,0.008523587140213713
1123,7.015421671722363e-05,0.0049582335577015935,0.06519156993960139,0.00837581140649807
1124,4.735023635304015e-05,0.004134939708120665,0.04377277615974906,0.006881150801504042
1125,6.454736160522751e-05,0.004708252186316129,0.06421049262154188,0.008034137265769552
1126,3.110945852874872e-05,0.0028984622476098346,0.05196950102225539,0.005577585367230922
1127,6.983629521346088e-05,0.004915761791220653,0.05333295565335483,0.008356811306560661
1128,4.9452860768400066e-05,0.004848683373719278,0.04863092198197583,0.00703227280247286
1129,4.744424545610673e-05,0.004245697804361267,0.04950984234878164,0.006887978328661201
1130,6.455332821470356e-05,0.00476683037048119,0.04777415900523074,0.008034508585763227
1131,6.701017224427411e-05,0.004172968746679663,0.060728516116989484,0.008185974117004868
1132,5.15438864483457e-05,0.0044129020097747555,0.0522464476356741,0.007179407109806859
1133,7.97991684023897e-05,0.006072472140702335,0.05619554861533693,0.008933038027591144
1134,5.73162208545653e-05,0.003988453159075063,0.06589248313205731,0.0075707477077607815
1135,6.089650842576346e-05,0.00493557341189754,0.04454167902654027,0.007803621494265524
1136,4.3205433508370386e-05,0.0030099665618129345,0.0580474503672882,0.006573084018051954
1137,5.8665269657488716e-05,0.004724928458791845,0.06997341457642792,0.007659325665976654
1138,5.7100387838455415e-05,0.004457053477703411,0.05455830737561246,0.007556479857609306
1139,6.453886857326116e-05,0.00611181057495542,0.03735595031257405,0.00803360868932889
1140,5.366762922622913e-05,0.00454292009845841,0.058386100594394336,0.007325819355282296
1141,5.2162925385718784e-05,0.00452062876075265,0.052674978275474515,0.007222390558929788
1142,5.61533988421253e-05,0.00390696021877327,0.07339171326292204,0.007493557155458588
1143,6.845556309500756e-05,0.00500757350364894,0.04687880749766382,0.008273787711502344
1144,6.708103032787302e-05,0.004918976543301422,0.05473498070587901,0.008190300991286743
1145,6.47615725594206e-05,0.004938532606154493,0.05090250139168839,0.0080474575214424
1146,3.9322442097312135e-05,0.004270174754185027,0.04708236375775865,0.006270760886631838
1147,4.45063348457821e-05,0.004577754269386036,0.054053678516506665,0.00667130683193193
1148,4.475556187284546e-05,0.004138984494333001,0.046773312581285476,0.006689959781108188
1149,4.832323152713509e-05,0.0034320574787055605,0.07007630744013671,0.006951491316770436
1150,7.591393301917196e-05,0.0046627575851879936,0.06749917769764835,0.008712860208862042
1151,5.4935542705606056e-05,0.004508166942561574,0.0586750980878894,0.007411851503207913
1152,7.243866622392199e-05,0.004659681523118498,0.05855336509268483,0.008511090777563195
1153,4.8652880593532664e-05,0.0034914175719906845,0.0505917659766999,0.006975161689418556
1154,5.489438236363507e-05,0.00409555971565862,0.04730199004800689,0.007409074325692422
1155,5.9300276153390457e-05,0.004381902510564134,0.06428338233021519,0.007700667253776784
1156,6.952250722056178e-05,0.00538533415766653,0.05769555615282029,0.008338015784379468
1157,3.656029292256391e-05,0.003019586615901661,0.06500969418831382,0.0060465108056269624
1158,3.372151062913472e-05,0.003137428099068019,0.049262391351560186,0.005807022527004214
1159,3.892630668848828e-05,0.003685218976561426,0.05837544558524588,0.006239095021594726
1160,4.994806468788948e-05,0.0037573826817588448,0.04653963051196719,0.007067394476600894
1161,4.325041284405192e-05,0.004397945609203565,0.04043230867575076,0.0065765046068600765
1162,5.8686090249478484e-05,0.004874096092868423,0.049936701908031456,0.007660684711530555
1163,7.070111468617156e-05,0.005209388453528772,0.06257767420452964,0.008408395488211227
1164,7.30084762766925e-05,0.005184794201393139,0.0782068988432294,0.008544499767493233
1165,2.217704264361349e-05,0.0034060235406741645,0.030872745352342523,0.0047092507518302
1166,4.244613152629291e-05,0.0038312111065169126,0.06278136536510293,0.006515069571868936
1167,7.149012451760644e-05,0.005009717592201252,0.0563657232763336,0.008455183292963304
1168,5.007131680295973e-05,0.005167927075721387,0.038485040521603286,0.007076108874442189
1169,7.848895331671821e-05,0.004490610374129738,0.06282953061967778,0.008859399150998775
1170,5.9169024892942134e-05,0.004238389999867284,0.05712611766092457,0.007692140462377258
1171,4.2276163225958716e-05,0.003852995964303729,0.053136583487010225,0.006502012244371613
1172,6.151056558965778e-05,0.0052708756769498785,0.05062903199664748,0.00784286717914164
1173,7.569680293537971e-05,0.004312881062342823,0.05370523124212845,0.008700390964512993
1174,2.7079989016550354e-05,0.003262096895235481,0.04196083949551843,0.0052038436771823056
1175,5.7383670272781745e-05,0.004742269120784052,0.05391308755664381,0.007575201005437476
1176,5.472005918599604e-05,0.005238744966007171,0.05904571353241472,0.00739730080407683
1177,5.6200425559948585e-05,0.005521755366661904,0.0525561221449804,0.007496694308823587
1178,5.037101335208766e-05,0.004560516705723657,0.0597879278587361,0.007097253930365414
1179,5.604517666183892e-05,0.0038353186239273402,0.061699812560854106,0.007486332657706198
1180,5.8890217788352694e-05,0.005341259868121016,0.056451958800112556,0.007673996207215127
1181,5.329794178269163e-05,0.004295564581192897,0.04418374961033453,0.00730054393745365
1182,4.1417781680774396e-05,0.0037662197119075038,0.04466345916070358,0.006435664820418636
1183,5.133562978229726e-05,0.003534095409956059,0.05047105348700032,0.007164888678988447
1184,5.9088280646089004e-05,0.004555217324702993,0.05758538341694913,0.007686890180436351
1185,6.822985657043391e-05,0.005582655918146151,0.04478910126933308,0.008260136595143758
1186,6.935236577718345e-05,0.005410302357729637,0.049726942223417225,0.0083278067807306
1187,6.0740695552156315e-05,0.004969143401565416,0.051152218046874864,0.007793631730596192
1188,6.572627471365879e-05,0.003909320606480038,0.0701824286807986,0.00810717427428683
1189,3.417452993021571e-05,0.0033705903544432535,0.045651355755050194,0.005845898556271349
1190,4.40398977475706e-05,0.0034938417715862447,0.05530551766068115,0.006636256305144503
1191,3.430178276838201e-05,0.0033283476705866406,0.04875907923494527,0.005856772384887581
1192,7.963573869468797e-05,0.005548128105703522,0.05181706761490901,0.008923885851728895
1193,7.101535483133468e-05,0.005315050819661696,0.05261366362472564,0.008427060865529211
1194,5.5042326759651935e-05,0.004013987247331345,0.049737330633590204,0.007419051607830436
1195,3.859828092247775e-05,0.004142875069262352,0.050234450189771795,0.0062127514776045495
1196,4.621341975495829e-05,0.0033970108663993353,0.05591886821825609,0.00679804528926939
1197,6.0309761201455467e-05,0.00471650704277257,0.05393812983850201,0.007765935951413401
1198,4.3337952336350494e-05,0.004291078921339372,0.03812648136479346,0.0065831567151595485
1199,6.378265594429304e-05,0.004706825340536581,0.04876563415649904,0.007986404444071985
1200,5.8519495258538776e-05,0.005119185159182134,0.05959139152813475,0.007649803609148296
1201,6.356522863067218e-05,0.005429465421085274,0.05158243771162141,0.007972780483035487
1202,6.705040170428616e-05,0.004245780548419331,0.07098196805294332,0.008188430967180822
1203,3.98640651896258e-05,0.003667551465213965,0.05582183118325057,0.006313799584214361
1204,5.409842196652609e-05,0.00470963685491641,0.054387428038773056,0.007355162946293271
1205,6.750301251004318e-05,0.004792315378904843,0.052518405389590406,0.008216021696054768
1206,6.939542529118281e-05,0.005417498573038218,0.07836015421000275,0.008330391664932818
1207,7.413442646032949e-05,0.005122699323008207,0.06707341550578327,0.00861013510116589
1208,5.2635595475906614e-05,0.004547022121300783,0.04017396745672386,0.00725503931594489
1209,5.009021100140846e-05,0.004323137296914834,0.05886916380249829,0.00707744381831519
1210,6.032854726843784e-05,0.0041609773680872306,0.07090746119774494,0.007767145374488458
1211,5.171344977325954e-05,0.003994285107079884,0.050564283274567856,0.007191206419875515
1212,3.167789746446564e-05,0.00357066026016415,0.04492221620436787,0.005628312132821484
1213,5.161237943735026e-05,0.0038062220976503736,0.05948541670248897,0.007184175626844728
1214,4.595606418302485e-05,0.00405051277401774,0.061637427255023525,0.006779090217944021
1215,4.171227783783377e-05,0.00398041371598347,0.05344091889717495,0.006458504303461711
1216,4.606010092331473e-05,0.004601468406204282,0.049928805541886945,0.006786759235696687
1217,3.97621957420217e-05,0.003736937429585563,0.05570317042411699,0.006305727217539742
1218,3.862118144391441e-05,0.004255735766400272,0.0485930637045775,0.006214594230029363
1219,6.10099506533475e-05,0.004139558286402364,0.06013742106873643,0.00781088667523393
1220,3.559844834511556e-05,0.00391964423348345,0.056614562120548495,0.005966443525678877
1221,6.918162851773311e-05,0.00377422418807402,0.06766385678464415,0.008317549429834054
1222,6.368198298530458e-05,0.0056329376460985126,0.05030326431866933,0.00798009918392646
1223,6.527111311725976e-05,0.004053526850600109,0.061015907815356485,0.008079053974151856
1224,6.700606560301873e-05,0.004712727378144065,0.05587702689449614,0.008185723279162208
1225,5.466263951099798e-05,0.003495465918213575,0.059757320013780646,0.007393418661958606
1226,4.382997827536873e-05,0.003916151603603664,0.062050820153317865,0.006620421306485597
1227,4.367861075117703e-05,0.0038706001248456044,0.05205716199749588,0.006608979554452918
1228,5.441794470777482e-05,0.004482101410915429,0.0537393217546952,0.007376851951054355
1229,5.903890209347954e-05,0.004522510467438189,0.060984896019026597,0.007683677641174125
1230,6.816572878449637e-05,0.0038005066052480053,0.06524174420968354,0.008256253919574899
1231,2.7926044523191855e-05,0.003370800400061608,0.05282634408342801,0.005284509865937568
1232,5.249749129465712e-05,0.005135369653117453,0.045125978273152206,0.007245515253910979
1233,4.775136930960068e-05,0.004635786557951496,0.0597477531317363,0.006910236559597664
1234,6.272993734023047e-05,0.005243710826303991,0.07755382632935326,0.007920223313785398
1235,6.75861488537085e-05,0.004591301121991854,0.060592774071628996,0.008221079543083607
1236,7.548377558907316e-05,0.005006979804868227,0.06580056960644942,0.00868813993839142
1237,4.621244003980669e-05,0.004117562314320589,0.05086267959889745,0.006797973230294919
1238,4.1348583649652206e-05,0.003668535244846378,0.06459559468167875,0.0064302864360502665
1239,4.872784582261162e-05,0.004129251399501869,0.06325167707556931,0.006980533348005107
1240,4.231218558794885e-05,0.00434232544184829,0.04773049446694966,0.006504781747910411
1241,5.741285144433144e-05,0.004807934236540988,0.05826490692488251,0.007577126859458745
1242,6.094161244501027e-05,0.0045812664016643715,0.051871783340953215,0.007806510900844864
1243,4.364389197210379e-05,0.003982019976617724,0.0559637528181991,0.006606352395392134
1244,6.0932246102815636e-05,0.0041975787982717425,0.061200626333286365,0.007805910972001589
1245,6.502185865780061e-05,0.004498519178312546,0.051659512596239576,0.008063613250758007
1246,4.788417331416244e-05,0.00423948893458622,0.045736942272323056,0.006919839110424607
1247,7.521136974803343e-05,0.004422305029493297,0.06573935738961584,0.008672448889906042
1248,4.945844988879383e-05,0.004152343652906138,0.0457149160457182,0.007032670182000099
1249,3.4515502222340555e-05,0.003567655319692546,0.041830958535144847,0.005874989550828178
1250,5.39468094443653e-05,0.004190656982433058,0.05621432026884576,0.007344849177782003
1251,4.781272507598173e-05,0.004863825521233437,0.04241111858283586,0.006914674618229079
1252,3.833491229378817e-05,0.003980095917272447,0.05006031233600261,0.006191519384915785
1253,5.9393753719291195e-05,0.004526035937694632,0.07330029224934664,0.007706734309634061
1254,6.970310122051651e-05,0.005688679041878024,0.054489893602191364,0.008348838315629064
1255,8.449026285316777e-05,0.005923257733958822,0.06645203733152272,0.009191858509200786
1256,6.108022890616749e-05,0.00477242155613687,0.044474709797720724,0.007815384117634076
1257,5.385181276964595e-05,0.004391213704876566,0.05986351180450522,0.007338379437562854
1258,4.361626677436723e-05,0.0045123407726313965,0.05768455456647015,0.00660426125879094
1259,6.986478914666932e-05,0.004958459759723382,0.10067283308695174,0.008358515965568802
1260,3.2239680937984825e-05,0.003062362335509591,0.046286130318738294,0.005677999730361429
1261,3.0627632423365463e-05,0.0026833968958054457,0.06023271660010998,0.005534223741715298
1262,5.43440135384276e-05,0.00417281302296947,0.05886935663764348,0.007371839223587773
1263,6.652891897612988e-05,0.005668406404765787,0.05481754814285722,0.008156526158612447
1264,5.614850312164686e-05,0.0043285038360868534,0.054367854236305746,0.0074932304863554525
1265,5.308296140281188e-05,0.004290283380983609,0.057518397860471526,0.007285805473851984
1266,6.575759893204181e-05,0.004970134867659897,0.05471658312988048,0.008109105926798671
1267,9.449997956714912e-05,0.006282012858319327,0.0624988466055188,0.009721109996659236
1268,6.129486144355054e-05,0.005639998745366482,0.04811525911484926,0.007829103489132745
1269,9.178769325650545e-05,0.005208043777362076,0.06301737799510221,0.009580589400266808
1270,5.123458499318351e-05,0.005378150794686983,0.03935148866427407,0.007157833819891544
1271,6.096203254343112e-05,0.004661877584104864,0.05437115152647265,0.007807818680235244
1272,8.453724879823295e-05,0.0051670148022835575,0.05555554888691949,0.009194413999719191
1273,5.1358648578274995e-05,0.00422669452015929,0.05540814459666543,0.007166494859990818
1274,6.61615497990365e-05,0.005156063789925366,0.06094607110539124,0.00813397503063759
1275,4.306088625254795e-05,0.0037072259323276523,0.05141122874293469,0.0065620794152880775
1276,6.337889059691481e-05,0.0040652949054061135,0.06393212311902907,0.007961086018685797
1277,5.675994201978124e-05,0.004052296749196425,0.05891300914361963,0.007533919432790654
1278,4.362017787125101e-05,0.003965274323803525,0.046309370177440634,0.006604557356193573
1279,1.8501853861080458e-05,0.0026872384696002807,0.022084831918592673,0.004301378135095804
1280,3.827209604717096e-05,0.0033985655182833248,0.0564881051211108,0.006186444540054546
1281,6.97303500078033e-05,0.005473338139573091,0.06329296992054001,0.008350470047117278
1282,4.814337383315778e-05,0.0036931205616918027,0.05182829481993878,0.006938542630348051
1283,3.780031562481819e-05,0.003922120619948515,0.050350550509803416,0.006148196127712423
1284,6.363530543860385e-05,0.004306552020752616,0.050265005702216925,0.007977174025844186
1285,3.8697863185480286e-05,0.0033262175804070976,0.04730247924023133,0.006220760659716774
1286,7.113657922186254e-05,0.004869817479053059,0.06180767788823638,0.008434250365139855
1287,6.151103834900941e-05,0.004966593640183551,0.05223393872063098,0.007842897318530249
1288,8.236502460880915e-05,0.0047819757004345115,0.07344859918678548,0.009075517870006577
1289,5.287175014910369e-05,0.004249733067689956,0.0602005865291011,0.007271296318339889
1290,5.1601130474912907e-05,0.004420064987110908,0.058358740658759345,0.007183392685556892
1291,6.472695793021232e-05,0.004455937041307623,0.059747161280756966,0.008045306577763934
1292,5.451252859739809e-05,0.004835869140587564,0.06084591327215527,0.007383260025042985
1293,6.68697105642903e-05,0.005129266510964124,0.05419858469773259,0.008177390204966967
1294,6.937129540006831e-05,0.005163972374425689,0.04856380125547988,0.008328943234292568
1295,5.749253728451272e-05,0.005046629867218045,0.050636621042676855,0.00758238335119721
1296,5.403909539615589e-05,0.004359571043639839,0.10654007452764759,0.007351128851826474
1297,4.7200317003025164e-05,0.00466136409366386,0.05631309351320324,0.006870248685675414
1298,4.7044843029494444e-05,0.003920834553444943,0.05680499501968628,0.0068589243347258405
1299,8.745464085213923e-05,0.006529597478040143,0.05143648527518385,0.009351718604199914
1300,4.871799873359909e-05,0.004536102841608157,0.06164660155650248,0.006979827987393291
1301,7.358158881564864e-05,0.006764386421605406,0.04522029881667766,0.008577971136326357
1302,4.5815493275368225e-05,0.0035160327544462573,0.06671265132700377,0.006768714300025338
1303,4.862170051924915e-05,0.0032714484152936213,0.054660335916442704,0.00697292625224509
1304,4.224229382159386e-05,0.005375450603985953,0.0328918769925719,0.006499407190013056
1305,5.227670536454997e-05,0.004824273376596395,0.05060207730739563,0.00723026316011732
1306,3.823339259513224e-05,0.004176914033105653,0.053389182751583775,0.006183315663552365
1307,4.846562456907362e-05,0.004874341757288376,0.049495956297402444,0.006961725689013692
1308,2.9276795402616583e-05,0.0028518456586493013,0.05512540916701614,0.005410803581966027
1309,5.274726995715804e-05,0.004662358716110957,0.046904836239155645,0.007262731576835096
1310,7.213199001327082e-05,0.0041675053149546,0.059284004829295966,0.00849305539916408
1311,7.297047598704531e-05,0.004961676532138411,0.05289032697540241,0.008542275808415732
1312,5.9839010157272065e-05,0.004877283408823274,0.05277784826389831,0.007735567862624674
1313,4.7761289227924914e-05,0.003266374489696043,0.06154398548590634,0.006910954292131067
1314,5.652239744978543e-05,0.004722846199083152,0.056308235918410166,0.007518137897763307
1315,6.102939714392612e-05,0.004171410201868232,0.06718289633696461,0.007812131408516225
1316,5.494232992506844e-05,0.004448553882938747,0.048406312070794044,0.007412309351684393
1317,5.294288015368725e-05,0.004378480781632877,0.05375073684111609,0.00727618582457091
1318,6.433972431271725e-05,0.0046746986889935616,0.0494940344966186,0.008021204667175416
1319,6.138452493867609e-05,0.005399416760091202,0.05719749277536801,0.007834827690426623
1320,4.208798091837905e-05,0.004218170452071859,0.05091671325562519,0.006487525022562817
1321,5.060252486016181e-05,0.004763565070762216,0.04198464315202566,0.007113545168209824
1322,4.391943989090287e-05,0.004399041366232359,0.05496332777155333,0.006627174351931791
1323,6.8589578981489e-05,0.005117001608470858,0.05137442499835654,0.008281882574722255
1324,7.328902141721689e-05,0.004630316070831729,0.061918387856571694,0.008560900736325382
1325,6.579064197285948e-05,0.005765179339546895,0.053815426993745086,0.008111143074367428
1326,3.38117087655348e-05,0.00401566129050367,0.04245422869664289,0.00581478363875515
1327,7.3238430804165e-05,0.005310468606872007,0.057225301931509875,0.008557945477985043
1328,4.6363905691249526e-05,0.003727052918304997,0.06123727096885556,0.006809104617440495
1329,3.3156471955766296e-05,0.00361932330967115,0.04477963351233072,0.005758165676304033
1330,5.334287998679763e-05,0.00525816872024493,0.05681540674121849,0.007303621018836966
1331,4.404898299549329e-05,0.0033221110973357905,0.06558929098276067,0.0066369407858962145
1332,5.847337321410889e-05,0.004344075114166713,0.055561617420796405,0.007646788424829613
1333,3.862842343814671e-05,0.004308816420702571,0.05776361254748785,0.006215176862981978
1334,3.861227244492911e-05,0.003273443000895371,0.04720099234190123,0.006213877408263606
1335,4.576679937359643e-05,0.004301474540079473,0.11376759739652442,0.006765116360684108
1336,4.999104039039994e-05,0.004623584904455638,0.04257032237795377,0.0070704342434110504
1337,3.952908817385158e-05,0.003635942788808334,0.049244321872450536,0.006287216249967152
1338,2.9642036642983747e-05,0.0038736223064922046,0.03167055266792884,0.0054444500771871785
1339,3.8409924469310055e-05,0.0033442149696053984,0.06299973141099535,0.006197574079372508
1340,5.2399211056817095e-05,0.004823700906794418,0.048296564492583904,0.007238729933960562
1341,5.445213265093079e-05,0.004281879299179588,0.06731933617481678,0.00737916883198443
1342,5.5082824238430104e-05,0.004416563593953254,0.04578753274854486,0.0074217803954596635
1343,5.3189870140953704e-05,0.0049732300449521856,0.035504046648702214,0.007293138565868142
1344,2.7436440168185923e-05,0.0027131689205358747,0.047227625750076996,0.005237980542936922
1345,7.471664527940716e-05,0.004558225417752106,0.06778445101485975,0.008643879064367269
1346,5.393635201174975e-05,0.004536724265238819,0.05779110015037725,0.007344137254419298
1347,4.9219129755258585e-05,0.004481666473155453,0.056232873618443646,0.007015634665178796
1348,5.986923377359735e-05,0.004361070966183903,0.06431628937181344,0.007737521164662289
1349,5.511235741072065e-05,0.0047126619718471765,0.06772779197079082,0.007423769757388772
1350,6.584208440463825e-05,0.0039713532105423175,0.06738422042400138,0.00811431355104289
1351,8.121195181331623e-05,0.005253875447548514,0.06646171976365567,0.009011767407857078
1352,5.7076695595870705e-05,0.003955190944810093,0.057836568815341494,0.007554912017745165
1353,7.78154758499567e-05,0.004663355694858169,0.06864386432352187,0.008821308057763086
1354,6.937441420576922e-05,0.005092698431162112,0.058464505129971034,0.008329130459163716
